# Angular measurement - Y = 284.00 
# time [s]	ch1 [V]	ch2 [V]
# 
-0.008192	3.596940428464187	0.1947591352027013
-0.008191	4.3904784416189075	0.16895798259198902
-0.00819	4.898192336291359	0.16527210364760156
-0.008189	5.089995363167619	0.13947095103688928
-0.008187999999999999	4.939561616598003	0.12472743525933941
-0.008187	4.476977845896436	0.07681100898230232
-0.008185999999999999	3.679678989077475	0.03626634059404017
-0.008185	2.7018596363749756	-0.015335964627384385
-0.008184	1.5134330384750148	-0.037451238293709194
-0.008183	0.19713775599088082	-0.09273942245952121
-0.008182	-1.0815490898508493	-0.10748293823707109
-0.008180999999999999	-2.307584124393214	-0.15539936451410816
-0.00818	-3.3944679433586846	-0.14802760662533324
-0.008178999999999999	-4.23689692414853	-0.1517134855697207
-0.008178	-4.808545161113068	-0.14434172768094577
-0.008177	-5.064282530281415	-0.13696996979217083
-0.008176	-4.9890656569966065	-0.10748293823707109
-0.008175	-4.575372853930165	-0.07062414879319641
-0.008173999999999999	-3.872095088717213	-0.04113711723809666
-0.008173	-2.905558267007435	0.014151066927715361
-0.008172	-1.7359358874286757	0.062067493204752446
-0.008171	-0.49109663456510916	0.08418276687107726
-0.00817	0.8101552732620632	0.12472743525933941
-0.008169	2.0813204317753127	0.1579003457588266
-0.008168	3.1982910000547062	0.16527210364760156
-0.008166999999999999	4.0971326358081575	0.19107325625831384
-0.008166	4.740236902393263	0.18001561942515143
-0.008165	5.048626082860975	0.1579003457588266
-0.008164	5.037343551868253	0.12104155631495193
-0.008163	4.71015015307934	0.08786864581546472
-0.008161999999999999	4.052002511837273	0.062067493204752446
-0.008161	3.1042699084486967	0.0325804616496527
-0.008159999999999999	2.028668620475947	-0.02270772251615932
-0.008159	0.7462209309699768	-0.0816817856263588
-0.008158	-0.5550309768571957	-0.09273942245952121
-0.008157	-1.7885876987280411	-0.13696996979217083
-0.008156	-2.9694926092995213	-0.15539936451410816
-0.008154999999999999	-3.9360294310092994	-0.15908524345849565
-0.008154	-4.605459603244087	-0.15908524345849565
-0.008152999999999999	-4.992826500660847	-0.14434172768094577
-0.008152	-5.064282530281415	-0.11116881718145855
-0.008151	-4.804784317448828	-0.08905354351513374
-0.00815	-4.195527643841886	-0.04482299618248413
-0.008149	-3.3230119137381173	0.003093430094552957
-0.008147999999999999	-2.2361280947726465	0.03995221953842764
-0.008147	-0.9950496855733204	0.07681100898230232
-0.008146	0.30244137858961156	0.12472743525933941
-0.008145	1.6036932864167839	0.1505285878700517
-0.008144	2.762033135002822	0.1837014983695389
-0.008143	3.7624175496907637	0.16527210364760156
-0.008142	4.522107969867321	0.18738737731392635
-0.008140999999999999	4.965887522247686	0.16527210364760156
-0.00814	5.089995363167619	0.1505285878700517
-0.008139	4.875627274305917	0.10261216159301459
-0.008138	4.352870004976504	0.08786864581546472
-0.008137	3.548049460829062	0.03626634059404017
-0.008136	2.517578296827197	-0.0005924488498345111
-0.008135	1.26897820029939	-0.059566511960034
-0.008133999999999999	-0.00594780187809983	-0.09642530140390868
-0.008133	-1.3034388660410317	-0.1185405750702335
-0.008132	-2.514430525926435	-0.1517134855697207
-0.008131	-3.5637059082495015	-0.17014288029165803
-0.00813	-4.361004765068463	-0.15908524345849565
-0.008128999999999999	-4.8912837217263565	-0.14434172768094577
-0.008128	-5.079325904938376	-0.13328409084778337
-0.008126999999999999	-4.943935533025722	-0.10011118034829615
-0.008126	-4.458786700338713	-0.06693826984880893
-0.008125	-3.706617967490636	-0.03007948040493426
-0.008124	-2.7062335528026944	0.014151066927715361
-0.008123	-1.5178069549027335	0.047323977427202575
-0.008121999999999999	-0.21655504707556125	0.0915545247598522
-0.008121	1.0809360170873707	0.14315682998127674
-0.00812	2.2994493643012546	0.13947095103688928
-0.008119	3.3712898086097636	0.17264386153637648
-0.008118	4.202436258406888	0.19107325625831384
-0.008117	4.815453775678071	0.17264386153637648
-0.008116	5.071191144846416	0.16527210364760156
-0.008114999999999999	5.00349595889009	0.113669798426177
-0.008114	4.627411592466052	0.07681100898230232
-0.008113	3.9128512962603788	0.062067493204752446
-0.008112	2.950075318214841	0.003093430094552957
-0.008111	1.791735469628803	-0.04482299618248413
-0.00811	0.513048623787073	-0.08536766457074628
-0.008109	-0.7693990657188976	-0.11485469612584602
-0.008107999999999999	-2.0443250678963873	-0.1295982119033959
-0.008107	-3.1537739488473	-0.15908524345849565
-0.008106	-4.060137271929232	-0.14802760662533324
-0.008105	-4.707002382178578	-0.1627711224028831
-0.008104	-5.049239155624453	-0.13696996979217083
-0.008102999999999999	-5.049239155624453	-0.13696996979217083
-0.008102	-4.714524069507059	-0.07431002773758387
-0.008100999999999999	-4.03757220994379	-0.059566511960034
-0.0081	-3.134969730526098	-0.007964206738609448
-0.008099	-2.014238318582464	0.0325804616496527
-0.008098	-0.7731599093831378	0.10261216159301459
-0.008097	0.543135373100996	0.12841331420372687
-0.008095999999999999	1.8030180006215242	0.1505285878700517
-0.008095	2.950075318214841	0.16895798259198902
-0.008094	3.9128512962603788	0.17632974048076394
-0.008093	4.61236821780909	0.1505285878700517
-0.008092	5.011017646218571	0.15421446681443915
-0.008091	5.082473675839138	0.12472743525933941
-0.00809	4.826736306670792	0.09524040370423965
-0.008088999999999999	4.202436258406888	0.07312513003791485
-0.008088	3.363768121281283	0.010465187983327892
-0.008087	2.2881668333085337	-0.011650085682996915
-0.008086	1.0508492677734478	-0.05588063301564653
-0.008085	-0.2767285457034074	-0.09642530140390868
-0.008084	-1.5478937042166567	-0.12222645401462096
-0.008083	-2.740081145780858	-0.12591233295900842
-0.008081999999999999	-3.7479872477972807	-0.15539936451410816
-0.008081	-4.488873449652636	-0.17014288029165803
-0.00808	-4.9401746893614815	-0.14802760662533324
-0.008079	-5.060521686617174	-0.13328409084778337
-0.008078	-4.864957816076674	-0.10011118034829615
-0.008076999999999999	-4.361004765068463	-0.026393601460546787
-0.008076	-3.5449016899282997	-0.0005924488498345111
-0.008074999999999999	-2.510669682262195	0.025208703760877766
-0.008074	-1.3109605533695126	0.07312513003791485
-0.008073	-0.009708645542340213	0.12104155631495193
-0.008072	1.280260731292111	0.13947095103688928
-0.008071	2.4874915475132737	0.1468427089256642
-0.008069999999999999	3.548049460829062	0.18738737731392635
-0.008069	4.352870004976504	0.17632974048076394
-0.008067999999999999	4.898192336291359	0.16158622470321407
-0.008067	5.10127789416034	0.12472743525933941
-0.008066	4.965887522247686	0.12104155631495193
-0.008065	4.51458628253884	0.09524040370423965
-0.008064	3.7323308003768405	0.04363809848281511
-0.008062999999999999	2.7432289166816197	-0.011650085682996915
-0.008062	1.573606537102861	-0.059566511960034
-0.008061	0.28739800393265	-0.07431002773758387
-0.00806	-1.0251364348872434	-0.12222645401462096
-0.008059	-2.2624540004223292	-0.1517134855697207
-0.008058	-3.341816132059319	-0.16645700134727057
-0.008057	-4.206810174834607	-0.14802760662533324
-0.008055999999999999	-4.801023473784587	-0.14434172768094577
-0.008055	-5.060521686617174	-0.14802760662533324
-0.008054	-4.992826500660847	-0.11116881718145855
-0.008053	-4.597937915915607	-0.07799590668197134
-0.008052	-3.920986056352338	-0.03007948040493426
-0.008050999999999999	-2.9694926092995213	0.010465187983327892
-0.00805	-1.8036310733850027	0.05469573531597751
-0.008048999999999999	-0.5399876022002341	0.0915545247598522
-0.008048	0.7612643056269381	0.12841331420372687
-0.008047	2.0249077768117067	0.13578507209250182
-0.008046	3.1456391887553408	0.16158622470321407
-0.008045	4.052002511837273	0.17264386153637648
-0.008043999999999999	4.71391099674358	0.1579003457588266
-0.008043	5.044865239196734	0.1505285878700517
-0.008041999999999999	5.048626082860975	0.13947095103688928
-0.008041	4.728954371400542	0.09892628264862713
-0.00804	4.078328417486956	0.05469573531597751
-0.008039	3.160682563412302	0.017836945872102827
-0.008038	2.0813204317753127	-0.04113711723809666
-0.008036999999999999	0.8289594915832652	-0.059566511960034
-0.008036	-0.4835749472366284	-0.10379705929268361
-0.008035	-1.7660226367425989	-0.12222645401462096
-0.008034	-2.9356450163213577	-0.1627711224028831
-0.008033	-3.8833776197099343	-0.1517134855697207
-0.008032	-4.5828945412586455	-0.15908524345849565
-0.008031	-4.985304813332366	-0.14802760662533324
-0.008029999999999999	-5.075565061274135	-0.12222645401462096
-0.008029	-4.797262630120347	-0.06325239090442147
-0.008028	-4.214331862163088	-0.06325239090442147
-0.008027	-3.379424568701723	-0.02270772251615932
-0.008026	-2.3000624370647333	0.028894582705265234
-0.008025	-1.0627448715296473	0.07681100898230232
-0.008024	0.2234636616405635	0.12104155631495193
-0.008022999999999999	1.5209547258034954	0.12841331420372687
-0.008022	2.724424698360418	0.16158622470321407
-0.008021	3.7398524877053214	0.17264386153637648
-0.00802	4.4957820642176385	0.16895798259198902
-0.008019	4.954604991254965	0.1579003457588266
-0.008017999999999999	5.089995363167619	0.1579003457588266
-0.008017	4.898192336291359	0.12104155631495193
-0.008015999999999999	4.386717597954667	0.06575337214913991
-0.008015	3.581897053807225	0.03995221953842764
-0.008014	2.5363825151483987	-0.011650085682996915
-0.008013	1.3517167609126783	-0.048508875126871596
-0.008012	0.05422569674974629	-0.08536766457074628
-0.008010999999999999	-1.247026211077426	-0.12591233295900842
-0.00801	-2.4655395582913098	-0.13696996979217083
-0.008009	-3.4960107222931747	-0.1627711224028831
-0.008008	-4.33843970308302	-0.17014288029165803
-0.008007	-4.876240347069396	-0.15908524345849565
-0.008006	-5.068043373945654	-0.1185405750702335
-0.008005	-4.947696376689962	-0.10379705929268361
-0.008003999999999999	-4.500155980645357	-0.06325239090442147
-0.008003	-3.7592697787900016	-0.026393601460546787
-0.008002	-2.7438419894450985	0.025208703760877766
-0.008001	-1.570458766202099	0.047323977427202575
-0.008	-0.3105761386815708	0.09892628264862713
-0.007999	1.0094799874668035	0.14315682998127674
-0.007998	2.2279933346806873	0.16527210364760156
-0.007996999999999999	3.314877153646158	0.16527210364760156
-0.007996	4.1949145710784075	0.16895798259198902
-0.007995	4.796649557356869	0.16158622470321407
-0.007994	5.0636694575179355	0.13578507209250182
-0.007993	5.018539333547051	0.10998391948178952
-0.007991999999999999	4.61612906147333	0.07681100898230232
-0.007991	3.9391772019100615	0.06575337214913991
-0.007989999999999999	3.002727129514206	0.0067793090389404245
-0.007989	1.8481481245924087	-0.033765359349321726
-0.007988	0.5882654970718806	-0.07799590668197134
-0.007987	-0.7242689417480128	-0.11116881718145855
-0.007986	-1.9916732565970219	-0.12591233295900842
-0.007984999999999999	-3.1011221375479345	-0.1627711224028831
-0.007984	-4.03381136627955	-0.17382875923604552
-0.007982999999999999	-4.676915632864655	-0.15908524345849565
-0.007982	-5.02667409363901	-0.13696996979217083
-0.007981	-5.0379566246317316	-0.11116881718145855
-0.00798	-4.707002382178578	-0.09273942245952121
-0.007979	-4.086463177578915	-0.03007948040493426
-0.007977999999999999	-3.183860698161223	0.014151066927715361
-0.007977	-2.0706509735460696	0.03995221953842764
-0.007976	-0.8408550953394647	0.08049688792668978
-0.007975	0.4792010308089095	0.12472743525933941
-0.007974	1.7165185963439955	0.14315682998127674
-0.007973	2.882380132258514	0.1947591352027013
-0.007972	3.886525390610696	0.18001561942515143
-0.007970999999999999	4.586042312159408	0.18001561942515143
-0.00797	5.00349595889009	0.17264386153637648
-0.007969	5.086234519503378	0.13947095103688928
-0.007968	4.845540524991994	0.12472743525933941
-0.007967	4.273892288027455	0.08049688792668978
-0.007965999999999999	3.412659088916408	0.03626634059404017
-0.007965	2.344579488272139	-0.0005924488498345111
-0.007963999999999999	1.0997402354085728	-0.04482299618248413
-0.007963	-0.19775082875435934	-0.0816817856263588
-0.007962	-1.4990027365815317	-0.13328409084778337
-0.007961	-2.683668490817252	-0.14434172768094577
-0.00796	-3.6802920618409534	-0.1517134855697207
-0.007958999999999999	-4.473830074995674	-0.14434172768094577
-0.007958	-4.92137047104028	-0.15539936451410816
-0.007956999999999999	-5.079325904938376	-0.1406558487365583
-0.007956	-4.898805409054837	-0.10748293823707109
-0.007955	-4.3798089833896645	-0.052194754071259064
-0.007954	-3.6013143448919056	-0.03007948040493426
-0.007953	-2.5670823372258003	0.017836945872102827
-0.007951999999999999	-1.3786557393258394	0.05100985637159004
-0.007951	-0.0774038314986671	0.10261216159301459
-0.00795	1.2200872326642649	0.11735567737056446
-0.007949	2.4386005798781487	0.15421446681443915
-0.007948	3.5179627115151386	0.1579003457588266
-0.007947	4.3415874739837825	0.17264386153637648
-0.007946	4.871866430641677	0.16527210364760156
-0.007944999999999999	5.074951988510657	0.1505285878700517
-0.007944	4.9583658349192055	0.13578507209250182
-0.007943	4.5446730318527635	0.08049688792668978
-0.007942	3.7887434553404464	0.05100985637159004
-0.007941	2.795880727980985	-0.004278327794221979
-0.00794	1.614975817409505	-0.037451238293709194
-0.007939	0.3400498152320154	-0.06693826984880893
-0.007937999999999999	-0.9574412489309165	-0.11116881718145855
-0.007937	-2.209802189122964	-0.1295982119033959
-0.007936	-3.3079685390811555	-0.1627711224028831
-0.007935	-4.176723425520684	-0.1627711224028831
-0.007934	-4.759654193477943	-0.14802760662533324
-0.007932999999999999	-5.056760842952934	-0.12591233295900842
-0.007932	-5.007869875317809	-0.08536766457074628
-0.007930999999999999	-4.620502977901049	-0.0816817856263588
-0.00793	-3.9548336493305016	-0.04113711723809666
-0.007929	-3.0033402022776845	0.03626634059404017
-0.007928	-1.8901304776625314	0.03995221953842764
-0.007927	-0.5851177261711187	0.0915545247598522
-0.007925999999999999	0.7086124943275729	0.11735567737056446
-0.007925	1.9760168091765817	0.1505285878700517
-0.007924	3.0967482211202157	0.16527210364760156
-0.007923	4.029437449851831	0.1837014983695389
-0.007922	4.7063893094150995	0.16895798259198902
-0.007921	5.044865239196734	0.1505285878700517
-0.00792	5.074951988510657	0.13578507209250182
-0.007918999999999999	4.743997746057503	0.09892628264862713
-0.007918	4.1196976977936	0.047323977427202575
-0.007917	3.2283777493686294	0.028894582705265234
-0.007916	2.122689712081957	-0.02270772251615932
-0.007915	0.8816113028826305	-0.06325239090442147
-0.007914	-0.40083638662334	-0.10748293823707109
-0.007913	-1.7058491381147527	-0.13696996979217083
-0.007911999999999999	-2.8829932050219926	-0.1627711224028831
-0.007911	-3.8344866520748093	-0.15539936451410816
-0.00791	-4.560329479273203	-0.1627711224028831
-0.007909	-4.966500595011165	-0.1517134855697207
-0.007908	-5.068043373945654	-0.14802760662533324
-0.007906999999999999	-4.82358853577003	-0.08536766457074628
-0.007906	-4.259461986133973	-0.059566511960034
-0.007904999999999999	-3.428315536336848	-0.026393601460546787
-0.007904	-2.345192561035618	0.017836945872102827
-0.007903	-1.1229183701574934	0.05469573531597751
-0.007902	0.19337691232664045	0.10629804053740206
-0.007901	1.4720637581683707	0.1505285878700517
-0.007899999999999999	2.6680120433968124	0.15421446681443915
-0.007899	3.679678989077475	0.19844501414708876
-0.007898	4.4468910965825135	0.18001561942515143
-0.007897	4.928279085605282	0.16895798259198902
-0.007896	5.089995363167619	0.1468427089256642
-0.007895	4.898192336291359	0.11735567737056446
-0.007894	4.401760972611629	0.0915545247598522
-0.007892999999999999	3.63078802144235	0.028894582705265234
-0.007892	2.607838544768966	-0.0005924488498345111
-0.007891	1.3930860412193224	-0.059566511960034
-0.00789	0.12568172637031355	-0.10379705929268361
-0.007889	-1.1868527124495798	-0.1185405750702335
-0.007888	-2.4091269033277043	-0.1406558487365583
-0.007887	-3.4960107222931747	-0.14802760662533324
-0.007885999999999999	-4.293309579112136	-0.1517134855697207
-0.007885	-4.857436128748193	-0.13696996979217083
-0.007884	-5.079325904938376	-0.13696996979217083
-0.007883	-4.962739751346924	-0.11116881718145855
-0.007882	-4.541525260952001	-0.07062414879319641
-0.007880999999999999	-3.7780739971112034	-0.026393601460546787
-0.00788	-2.8040154880729444	0.017836945872102827
-0.007878999999999999	-1.641914795822666	0.05469573531597751
-0.007878	-0.36698879364517656	0.0915545247598522
-0.007877	0.9380239578462362	0.13209919314811433
-0.007876	2.1828632107098027	0.1579003457588266
-0.007875	3.284790404332235	0.18001561942515143
-0.007873999999999999	4.1460236034432825	0.18001561942515143
-0.007873	4.777845339035667	0.17632974048076394
-0.007871999999999999	5.059908613853696	0.14315682998127674
-0.007871	5.022300177211291	0.12472743525933941
-0.00787	4.646215810787253	0.07312513003791485
-0.007869	3.984307325880946	0.05469573531597751
-0.007868	3.0553789408135716	0.014151066927715361
-0.007866999999999999	1.908321623220255	-0.033765359349321726
-0.007866	0.6597215266924479	-0.0816817856263588
-0.007865	-0.6640954431201669	-0.08905354351513374
-0.007864	-1.935260601633416	-0.11116881718145855
-0.007863	-3.044709482584329	-0.1627711224028831
-0.007862	-3.988681242308665	-0.15908524345849565
-0.007861	-4.650589727214972	-0.1627711224028831
-0.007859999999999999	-5.000348187989328	-0.14434172768094577
-0.007859	-5.030434937303251	-0.11485469612584602
-0.007858	-4.759654193477943	-0.07431002773758387
-0.007857	-4.1315933015498	-0.026393601460546787
-0.007856	-3.2553167277817905	0.010465187983327892
-0.007855	-2.1345853158381565	0.04363809848281511
-0.007854	-0.882224375646109	0.08786864581546472
-0.007852999999999999	0.4002233138598615	0.12104155631495193
-0.007852	1.6751493160373512	0.14315682998127674
-0.007851	2.84477169561611	0.16527210364760156
-0.00785	3.818830204654369	0.17632974048076394
-0.007849	4.563477250173965	0.1837014983695389
-0.007847999999999999	4.969648365911926	0.1468427089256642
-0.007847	5.089995363167619	0.1579003457588266
-0.007845999999999999	4.8530622123204745	0.10998391948178952
-0.007845	4.266370600698975	0.062067493204752446
-0.007844	3.4690717438800136	0.010465187983327892
-0.007843	2.393470455907264	-0.004278327794221979
-0.007842	1.152392046707938	-0.04113711723809666
-0.007840999999999999	-0.13757733012651321	-0.09642530140390868
-0.00784	-1.4388292379536856	-0.1185405750702335
-0.007839	-2.6197341485251657	-0.15539936451410816
-0.007838	-3.6502053125270306	-0.1627711224028831
-0.007837	-4.424939107360549	-0.1627711224028831
-0.007836	-4.925131314704521	-0.14802760662533324
-0.007835	-5.071804217609895	-0.13696996979217083
-0.007833999999999999	-4.925131314704521	-0.08905354351513374
-0.007833	-4.413656576367828	-0.059566511960034
-0.007832	-3.631401094205829	-0.03007948040493426
-0.007831	-2.574604024554281	-0.02270772251615932
-0.00783	-1.4087424886397624	0.047323977427202575
-0.007829	-0.12629479913379207	0.09524040370423965
-0.007828	1.1486312030436976	0.13947095103688928
-0.007826999999999999	2.393470455907264	0.14315682998127674
-0.007826	3.4690717438800136	0.18001561942515143
-0.007825	4.2926965063486575	0.16527210364760156
-0.007824	4.856823055984715	0.15421446681443915
-0.007823	5.093756206831859	0.1579003457588266
-0.007821999999999999	4.969648365911926	0.10998391948178952
-0.007821	4.567238093838205	0.08786864581546472
-0.007819999999999999	3.8413952666398115	0.05100985637159004
-0.007819	2.8485325392803507	0.003093430094552957
-0.007818	1.6676276287088705	-0.03007948040493426
-0.007817	0.4002233138598615	-0.06693826984880893
-0.007816	-0.8935069066388301	-0.11485469612584602
