# Angular measurement - Y = -8.00 
# time [s]	ch1 [V]	ch2 [V]
# 
-0.008192	3.6834398327417155	-2.5143618889220876
-0.008191	4.473217002232196	-2.123658720817016
-0.00819	4.943322460262244	-1.570776879158896
-0.008189	5.082473675839138	-0.9331198217798639
-0.008187999999999999	4.913235710948321	-0.2438604591794074
-0.008187	4.405521816275869	0.4712000560317614
-0.008185999999999999	3.6044621157926673	1.1715170554653802
-0.008185	2.5815126391192833	1.776001202344925
-0.008184	1.3554776045769188	2.2662231019484587
-0.008183	0.06926907140670782	2.616381601665268
-0.008182	-1.2319828364204646	2.7711885173295414
-0.008180999999999999	-2.4693004019555502	2.7785602752183167
-0.00818	-3.514814940614377	2.5721510543326183
-0.008178999999999999	-4.312113797433338	2.2256784335601965
-0.008178	-4.876240347069396	1.7170271392347256
-0.008177	-5.068043373945654	1.1051712344664057
-0.008176	-4.977783126003885	0.3974824771440121
-0.008175	-4.511438511638078	-0.3102062801783818
-0.008173999999999999	-3.781834840775444	-0.9957797638344509
-0.008173	-2.807776331737185	-1.6334368212134829
-0.008172	-1.6231105775014643	-2.1605175102608905
-0.008171	-0.32938035700277274	-2.5549065573103498
-0.00817	0.9568281761674382	-2.746572262418498
-0.008169	2.212949960023726	-2.7686875360848227
-0.008168	3.3111163099819176	-2.643367651975649
-0.008166999999999999	4.168588665428725	-2.3005809101476142
-0.008166	4.736476058729022	-1.744013189545107
-0.008165	5.086234519503378	-1.2021889847201492
-0.008164	5.029821864539772	-0.5313590168416299
-0.008163	4.6424549671230135	0.16158622470321407
-0.008161999999999999	3.9655031075597442	0.8877043767475453
-0.008161	3.021531347835408	1.5290473130709645
-0.008159999999999999	1.8669523429136108	2.078243275784698
-0.008159	0.6070697153930826	2.498433475444869
-0.008158	-0.6828996614413687	2.741701485774442
-0.008157	-1.9728690382758198	2.7933037909958665
-0.008156	-3.093600450219454	2.6900991805530174
-0.008154999999999999	-4.011246304294107	2.38048534922447
-0.008154	-4.658111414543453	1.9308081180091987
-0.008152999999999999	-5.01539156264629	1.3668686395179162
-0.008152	-5.064282530281415	0.6923527926950095
-0.008151	-4.737089131492501	-0.033765359349321726
-0.00815	-4.097745708571636	-0.7414541166717156
-0.008149	-3.2177082911393864	-1.4049123266614598
-0.008147999999999999	-2.093216035531512	-1.9614800472639675
-0.008147	-0.8709418446533879	-2.407471399534851
-0.008146	0.4378317505022653	-2.6839123203639113
-0.008145	1.712757752679755	-2.7908028097511477
-0.008144	2.878619288594274	-2.691284078252686
-0.008143	3.867721172289494	-2.4369584310899506
-0.008142	4.570998937502446	-2.0204541103741667
-0.008140999999999999	5.00349595889009	-1.4823157844935968
-0.00814	5.078712832174897	-0.8114858166150775
-0.008139	4.834257993999272	-0.10748293823707109
-0.008138	4.273892288027455	0.6075775769740978
-0.008137	3.438984994566091	1.2931510606301666
-0.008136	2.344579488272139	1.8828916917321616
-0.008135	1.1335878283867362	2.3583700755581454
-0.008133999999999999	-0.1639032357761959	2.6495545121647552
-0.008133	-1.4388292379536856	2.789617912051479
-0.008132	-2.6385383668463676	2.741701485774442
-0.008131	-3.6502053125270306	2.498433475444869
-0.00813	-4.424939107360549	2.1187879441729596
-0.008128999999999999	-4.9401746893614815	1.6138225287918764
-0.008128	-5.071804217609895	0.9687937135240696
-0.008126999999999999	-4.8912837217263565	0.2905919877567754
-0.008126	-4.394852358046626	-0.45764143795388057
-0.008125	-3.623879406877348	-1.1432149216099496
-0.008124	-2.5821257118827616	-1.7661284632114318
-0.008123	-1.3786557393258394	-2.2379209680930274
-0.008121999999999999	-0.09620804981986901	-2.588079467809837
-0.008121	1.190000483350342	-2.765001657140435
-0.00812	2.4348397362139087	-2.753944020307273
-0.008119	3.510441024186658	-2.580707709921062
-0.008118	4.31150072466986	-2.2194915733710903
-0.008117	4.8530622123204745	-1.7182120369343947
-0.008116	5.059908613853696	-1.0952984953329126
-0.008114999999999999	4.977170053240407	-0.3986673748436811
-0.008114	4.563477250173965	0.3090213824787128
-0.008113	3.8150693609901287	1.0093383819123316
-0.008112	2.8259674772949084	1.643309560346976
-0.008111	1.6450625667234282	2.174076128338772
-0.00811	0.36637572088169806	2.561093417499456
-0.008109	-0.9160719686242724	2.767502638385154
-0.008107999999999999	-2.179715439809041	2.796989669940254
-0.008107	-3.2816426334314728	2.6495545121647552
-0.008106	-4.154158363535242	2.317825407169883
-0.008105	-4.759654193477943	1.8349752654551246
-0.008104	-5.052999999288693	1.2341769975199672
-0.008102999999999999	-5.01539156264629	0.5744046664746105
-0.008102	-4.643068039886492	-0.15539936451410816
-0.008100999999999999	-3.9585944929947416	-0.863088121836502
-0.0081	-3.0334269515916077	-1.5044310581599216
-0.008099	-1.8788479466698103	-2.0499411419292666
-0.008098	-0.6152044754850419	-2.4664454626450505
-0.008097	0.6935691196706113	-2.7097134729746233
-0.008095999999999999	1.919604154212976	-2.783431051862373
-0.008095	3.0817048464632544	-2.669168804586361
-0.008094	4.01815491885911	-2.3816702469241386
-0.008093	4.665020029108455	-1.9283071367644804
-0.008092	5.033582708204013	-1.3606817793288104
-0.008091	5.078712832174897	-0.7009094482834534
-0.00809	4.759041120714465	0.0215228248164903
-0.008088999999999999	4.142262759779042	0.7218398242501093
-0.008088	3.23589943669711	1.3779262763510784
-0.008087	2.171580679717082	1.9602951495642984
-0.008086	0.896654677539592	2.4062865018351824
-0.008085	-0.4045972302875804	2.68641330160863
-0.008084	-1.6832840761293104	2.8006755488846413
-0.008083	-2.8717106740292713	2.7306438489412796
-0.008081999999999999	-3.8194432774178475	2.4542029281122195
-0.008081	-4.545286104616242	2.0450703652852105
-0.00808	-4.958978907682684	1.4848167657383151
-0.008079	-5.064282530281415	0.8361020715261208
-0.008078	-4.834871066762751	0.13947095103688928
-0.008076999999999999	-4.297070422776376	-0.571903685229892
-0.008076	-3.465923972979252	-1.2611630478303486
-0.008074999999999999	-2.386561841342262	-1.847217799987956
-0.008074	-1.1454834321429357	-2.311638546980777
-0.008073	0.12944257003455395	-2.6175664993649366
-0.008072	1.4306944778617263	-2.783431051862373
-0.008071	2.6341644504186488	-2.7502581413628855
-0.008069999999999999	3.6571139270920328	-2.5438489204771875
-0.008069	4.443130252918273	-2.131030478705791
-0.008067999999999999	4.916996554612561	-1.5965780317696083
-0.008067	5.086234519503378	-0.9626068533349637
-0.008066	4.916996554612561	-0.2586039749569573
-0.008065	4.431847721925552	0.452770661309824
-0.008064	3.645831396099312	1.1199147502439557
-0.008062999999999999	2.615360232097447	1.7391424129010504
-0.008062	1.4344553215259668	2.2441078282821336
-0.008061	0.11063835171335203	2.6126957227208805
-0.00806	-1.1830918687853396	2.7859320331070916
-0.008059	-2.4016052159992234	2.782246154162704
-0.008058	-3.458402285650771	2.5979522069433307
-0.008057	-4.300831266440617	2.229364312504584
-0.008055999999999999	-4.834871066762751	1.7428282918454379
-0.008055	-5.075565061274135	1.130972387077118
-0.008054	-4.974022282339645	0.4195977508103369
-0.008053	-4.552807791944723	-0.2807192486232821
-0.008052	-3.804399902760886	-0.9773503691125135
-0.008050999999999999	-2.841623924715348	-1.6297509422690954
-0.00805	-1.649436483151147	-2.138402236594566
-0.008048999999999999	-0.3820321683021381	-2.52541952575525
-0.008048	0.9154588958607939	-2.728142867696561
-0.008047	2.1791023670455627	-2.7723734150292105
-0.008046	3.2697470296752735	-2.6323100151424867
-0.008045	4.149784447107523	-2.304266789092002
-0.008043999999999999	4.766562808042946	-1.8398460420991811
-0.008043	5.052386926525215	-1.2537912899415737
-0.008041999999999999	5.018539333547051	-0.5534742905079547
-0.008041	4.665020029108455	0.16895798259198902
-0.00804	3.9955898568736674	0.8508455873036707
-0.008039	3.051618097149331	1.5106179183490274
-0.008038	1.919604154212976	2.05981388106276
-0.008036999999999999	0.6559606830282074	2.457888807056607
-0.008036	-0.6340086938062437	2.7159003331637295
-0.008035	-1.8863696339982912	2.8191049436065785
-0.008034	-3.048470326248569	2.68641330160863
-0.008033	-3.969877023987463	2.421030017612732
-0.008032	-4.658111414543453	1.9602951495642984
-0.008031	-5.01539156264629	1.374240397406691
-0.008029999999999999	-5.056760842952934	0.7255257031944967
-0.008029	-4.770936724470665	-0.0005924488498345111
-0.008028	-4.154158363535242	-0.6787941746171287
-0.008027	-3.2553167277817905	-1.3606817793288104
-0.008026	-2.164672065152079	-1.9393647735976427
-0.008025	-0.9160719686242724	-2.3706126100909763
-0.008024	0.38894078286714034	-2.669168804586361
-0.008022999999999999	1.66386678504463	-2.7797451729179854
-0.008022	2.8372500082876293	-2.7023417150858484
-0.008021	3.82635189198285	-2.4517019468675008
-0.00802	4.5446730318527635	-2.0425693840404917
-0.008019	4.984691740568888	-1.5191745739374714
-0.008017999999999999	5.074951988510657	-0.8446587271145647
-0.008017	4.860583899648955	-0.14802760662533324
-0.008015999999999999	4.307739881005619	0.5633470296414481
-0.008015	3.4765934312084945	1.263664029075067
-0.008014	2.4348397362139087	1.8570905391214494
-0.008013	1.190000483350342	2.3141395282254957
-0.008012	-0.10749058081259016	2.645868633220368
-0.008010999999999999	-1.38617742665432	2.789617912051479
-0.00801	-2.604690773868204	2.7564450015519917
-0.008009	-3.623879406877348	2.5463499017219062
-0.008008	-4.402374045375107	2.151960854672447
-0.008007	-4.902566252719078	1.6211942866806512
-0.008006	-5.083086748602616	1.0056525029679442
-0.008005	-4.895044565390597	0.3016496245899378
-0.008003999999999999	-4.424939107360549	-0.41709676956561836
-0.008003	-3.657726999855511	-1.0952984953329126
-0.008002	-2.6272558358536466	-1.7034685211568448
-0.008001	-1.4313075506252049	-2.2231774523154777
-0.008	-0.14885986111923435	-2.573335952032287
-0.007999	1.1674354213648996	-2.753944020307273
-0.007998	2.3784270812503028	-2.753944020307273
-0.007996999999999999	3.4540283692230522	-2.573335952032287
-0.007996	4.281413975355936	-2.2231774523154777
-0.007995	4.830497150335032	-1.7218979158787822
-0.007994	5.086234519503378	-1.1395290426655622
-0.007993	4.984691740568888	-0.4392120432319432
-0.007991999999999999	4.582281468495167	0.279534350923613
-0.007991	3.8639603286252537	0.972479592468457
-0.007989999999999999	2.8899018195869948	1.6175084077362638
-0.007989	1.6939535343585532	2.1482749757280595
-0.007988	0.42278837584530377	2.5279205069999686
-0.007987	-0.8709418446533879	2.749073243663217
-0.007986	-2.1044985665242333	2.7785602752183167
-0.007984999999999999	-3.213947447475146	2.638496875331593
-0.007984	-4.124071614221319	2.325197165058658
-0.007982999999999999	-4.7446108188209815	1.8607764180658368
-0.007982	-5.0454783119602125	1.2673499080194544
-0.007981	-5.011630718982049	0.6149493348628727
-0.00798	-4.669393945536174	-0.11116881718145855
-0.007979	-3.977398711315944	-0.8262293323926273
-0.007977999999999999	-3.071035388234012	-1.4749440266048217
-0.007977	-1.946543132626137	-2.027825868262942
-0.007976	-0.6716171304486476	-2.4480160679231133
-0.007975	0.640917308371246	-2.691284078252686
-0.007974	1.8744740302420915	-2.761315778196048
-0.007973	3.0403355661566103	-2.691284078252686
-0.007972	3.973024794888225	-2.3964137627016884
-0.007970999999999999	4.646215810787253	-1.9319930157088678
-0.00797	5.011017646218571	-1.3754252951063601
-0.007969	5.0561477701894555	-0.7230247219497782
-0.007968	4.777845339035667	-0.004278327794221979
-0.007967	4.179871196421446	0.6960386716393969
-0.007965999999999999	3.3111163099819176	1.3705545184623036
-0.007965	2.1979065853667645	1.956609270619911
-0.007963999999999999	0.9605890198316784	2.387857107113245
-0.007963	-0.3594671063166958	2.6753556647754673
-0.007962	-1.6456756394869065	2.815419064662191
-0.007961	-2.8115371754014253	2.749073243663217
-0.00796	-3.793117371768165	2.4800040807229315
-0.007958999999999999	-4.52648188629504	2.078243275784698
-0.007958	-4.958978907682684	1.5216755551821897
-0.007956999999999999	-5.079325904938376	0.8729608609699955
-0.007956	-4.857436128748193	0.16895798259198902
-0.007955	-4.304592110104857	-0.5424166536747923
-0.007954	-3.4960107222931747	-1.2206183794420866
-0.007953	-2.420409434320425	-1.8140448894884689
-0.007951999999999999	-1.2018960871065414	-2.319010304869552
-0.007951	0.08431244606366935	-2.628624136198099
-0.00795	1.378042666562361	-2.7797451729179854
-0.007949	2.566469264462322	-2.746572262418498
-0.007948	3.619505490449629	-2.5327912836440247
-0.007947	4.3904784416189075	-2.1605175102608905
-0.007946	4.9094748672840804	-1.6481803369910328
-0.007944999999999999	5.078712832174897	-0.9994656427788383
-0.007944	4.939561616598003	-0.3175780380671568
-0.007943	4.4468910965825135	0.4011683560883995
-0.007942	3.687200676405956	1.0941135976332435
-0.007941	2.6717728870610524	1.705969502401563
-0.00794	1.4720637581683707	2.2183066756714216
-0.007939	0.18585522499815968	2.5832086911657806
-0.007937999999999999	-1.137961744814455	2.7711885173295414
-0.007937	-2.3414317173713775	2.7711885173295414
-0.007936	-3.4207938490083674	2.601638085887718
-0.007935	-4.2669836734624536	2.2441078282821336
-0.007934	-4.831110223098511	1.7465141707898253
-0.007932999999999999	-5.060521686617174	1.1494017817990554
-0.007932	-4.981543969668126	0.46382829814298643
-0.007930999999999999	-4.567851166601684	-0.2438604591794074
-0.00793	-3.8457691830675302	-0.9404915796686388
-0.007929	-2.890514892350473	-1.578148637047671
-0.007928	-1.7133708254432334	-2.1126010839838534
-0.007927	-0.4459665105942246	-2.5291054046996373
-0.007925999999999999	0.8590462408971882	-2.7244569887521735
-0.007925	2.103885493760755	-2.7723734150292105
-0.007924	3.2321385930328694	-2.6249382572537114
-0.007923	4.112176010465119	-2.3411255785358764
-0.007922	4.736476058729022	-1.8656471947098934
-0.007921	5.071191144846416	-1.279592442552286
-0.00792	5.052386926525215	-0.5755895641742795
-0.007918999999999999	4.702628465750859	0.13578507209250182
-0.007918	4.0407199808445515	0.8397879504705082
-0.007917	3.1155524394414176	1.4811308867939275
-0.007916	1.9647342781838606	2.0303268495076607
-0.007915	0.7236558689845345	2.4542029281122195
-0.007914	-0.5851177261711187	2.712214454219342
-0.007913	-1.8337178226989257	2.789617912051479
-0.007911999999999999	-2.988296827620723	2.68641330160863
-0.007911	-3.928507743680819	2.4062865018351824
-0.00791	-4.635546352558011	1.9860963021750107
-0.007909	-5.000348187989328	1.4184709447393407
-0.007908	-5.049239155624453	0.758698613693984
-0.007906999999999999	-4.789740942791866	0.04363809848281511
-0.007906	-4.191766800177645	-0.6640506588395787
-0.007904999999999999	-3.319251070073877	-1.334880626718098
-0.007904	-2.2361280947726465	-1.924621257820093
-0.007903	-0.9649629362593974	-2.374298489035364
-0.007902	0.32124559691081345	-2.650739409864424
-0.007901	1.5961715990883032	-2.7797451729179854
-0.007899999999999999	2.7883590406525043	-2.717085230863398
-0.007899	3.766178393355004	-2.4738172205338254
-0.007898	4.529629657195802	-2.0683705366512037
-0.007897	4.965887522247686	-1.5118028160486965
-0.007896	5.078712832174897	-0.8852033955028268
-0.007895	4.890670648962878	-0.1517134855697207
-0.007894	4.337826630319542	0.522802361253186
-0.007892999999999999	3.5066801805224177	1.2194334817424173
-0.007892	2.476209016520553	1.8091741128444123
-0.007891	1.2539348256424283	2.317825407169883
-0.00789	-0.05107792584898442	2.6200674806096553
-0.007889	-1.3260039280264742	2.796989669940254
-0.007888	-2.5407564315761175	2.760130880496379
-0.007887	-3.586270970234944	2.553721659610681
-0.007885999999999999	-4.372287296061184	2.1851337651719343
-0.007885	-4.880001190733636	1.6801683497908508
-0.007884	-5.068043373945654	1.0351395345230439
-0.007883	-4.92137047104028	0.34219429297820003
-0.007882	-4.451265013010232	-0.3691803432885813
-0.007880999999999999	-3.7103788111548766	-1.0731832216665877
-0.00788	-2.6799076471530117	-1.6924108843236825
-0.007878999999999999	-1.502763580245772	-2.20474805759354
-0.007878	-0.19775082875435934	-2.5549065573103498
-0.007877	1.0884577044158517	-2.7576298992516604
-0.007876	2.3295361136151778	-2.753944020307273
-0.007875	3.393854870595206	-2.5843935888654497
-0.007873999999999999	4.270131444363215	-2.252664483870577
-0.007873	4.841779681327753	-1.7661284632114318
-0.007871999999999999	5.059908613853696	-1.1395290426655622
-0.007871	4.995974271561609	-0.4502696800651056
-0.00787	4.589803155823648	0.26110495620167573
-0.007869	3.886525390610696	0.9503643188021322
-0.007868	2.9237494125651584	1.5806496182923893
-0.007866999999999999	1.742844501993678	2.1298455810061223
-0.007866	0.49048356180163066	2.5352922648887435
-0.007865	-0.8145291896897822	2.7453873647188294
-0.007864	-2.051846755224868	2.815419064662191
-0.007863	-3.1575347925115405	2.6606121489979175
-0.007862	-4.075180646586194	2.3657418334469202
-0.007861	-4.710763225842818	1.893949328565324
-0.007859999999999999	-5.052999999288693	1.2784075448526169
-0.007859	-5.0379566246317316	0.6112634559184852
-0.007858	-4.695719851185856	-0.09273942245952121
-0.007857	-4.030050522615309	-0.8114858166150775
-0.007856	-3.1086438248764154	-1.460200510827272
-0.007855	-1.9991949439255026	-1.9983388367078423
-0.007854	-0.7393123164049744	-2.4480160679231133
-0.007852999999999999	0.573222122414919	-2.706027594030236
-0.007852	1.840626437263928	-2.7908028097511477
-0.007851	2.968879536536043	-2.6839123203639113
-0.00785	3.9316555145815806	-2.422214915312401
-0.007849	4.634933279794533	-1.979909441985905
-0.007847999999999999	5.00349595889009	-1.4085982056058475
-0.007847	5.052386926525215	-0.7598835113936528
-0.007845999999999999	4.800410401021109	-0.052194754071259064
-0.007845	4.206197102071129	0.6481222453623599
-0.007844	3.326159684638879	1.3226380921852665
-0.007843	2.2656017713230914	1.9160646022316488
-0.007842	1.013240831131044	2.3841712281688574
-0.007840999999999999	-0.2880110766961285	2.67166978583108
-0.00784	-1.570458766202099	2.782246154162704
-0.007839	-2.7476028331093385	2.734329727885667
-0.007838	-3.755508935125761	2.4947475965004813
-0.007837	-4.488873449652636	2.096672670506635
-0.007836	-4.947696376689962	1.5585343446260644
-0.007835	-5.075565061274135	0.9098196504138701
-0.007833999999999999	-4.872479503405155	0.21318852992463863
-0.007833	-4.357243921404223	-0.5129296221196925
-0.007832	-3.5223366279428574	-1.2058748636645367
-0.007831	-2.488104620276752	-1.7808719789889818
-0.00783	-1.2733521167271087	-2.282151515425677
-0.007829	0.024138947435823233	-2.6249382572537114
-0.007828	1.3103474806060342	-2.7723734150292105
-0.007826999999999999	2.5213391404914374	-2.7502581413628855
-0.007826	3.581897053807225	-2.5512206783659623
-0.007825	4.382956754290427	-2.186318662871603
-0.007824	4.898192336291359	-1.6592379738241951
-0.007823	5.082473675839138	-1.0400103111671006
-0.007821999999999999	4.9508441475907246	-0.33232155384470663
-0.007821	4.5033037515461185	0.3716813245332997
-0.007819999999999999	3.7285699567126	1.0683124450225312
-0.007819	2.7169030110319374	1.6801683497908508
-0.007818	1.543519787788938	2.1961914020050965
-0.007817	0.2497895672902462	2.561093417499456
-0.007816	-1.0552231842011666	2.7785602752183167
-0.007814999999999999	-2.288779906072012	2.7785602752183167
-0.007814	-3.3568595067162805	2.634810996387205
-0.007813	-4.214331862163088	2.269908980892846
-0.0078119999999999995	-4.797262630120347	1.7796870812893124
-0.007810999999999999	-5.060521686617174	1.1973182080760925
-0.007809999999999999	-4.985304813332366	0.4896294507536988
-0.007809	-4.597937915915607	-0.21805930656869513
-0.007808	-3.8833776197099343	-0.9073186691691516
