# Angular measurement - Y = 239.00 
# time [s]	ch1 [V]	ch2 [V]
# 
-0.008192	3.5442886171648214	-0.04113711723809666
-0.008191	4.371674223297705	-0.03007948040493426
-0.00819	4.883148961634397	-0.04482299618248413
-0.008189	5.074951988510657	-0.015335964627384385
-0.008187999999999999	4.9508441475907246	-0.011650085682996915
-0.008187	4.488260376889158	-0.015335964627384385
-0.008185999999999999	3.7323308003768405	-0.026393601460546787
-0.008185	2.7281855420246583	-0.019021843571771852
-0.008184	1.543519787788938	0.0067793090389404245
-0.008183	0.2723546292756885	0.017836945872102827
-0.008182	-1.0176147475587627	0.0215228248164903
-0.008180999999999999	-2.2737365314150506	0.0325804616496527
-0.00818	-3.35309866305204	0.03626634059404017
-0.008178999999999999	-4.206810174834607	0.028894582705265234
-0.008178	-4.812306004777309	0.03626634059404017
-0.008177	-5.060521686617174	0.05100985637159004
-0.008176	-4.9890656569966065	0.03626634059404017
-0.008175	-4.5828945412586455	0.05100985637159004
-0.008173999999999999	-3.8946601507026553	0.028894582705265234
-0.008173	-2.939405859985598	0.017836945872102827
-0.008172	-1.7998702297207623	0.0215228248164903
-0.008171	-0.5099008528863112	0.0067793090389404245
-0.00817	0.7875902112766209	0.003093430094552957
-0.008169	2.028668620475947	-0.0005924488498345111
-0.008168	3.149400032419581	-0.02270772251615932
-0.008166999999999999	4.074567573822716	-0.019021843571771852
-0.008166	4.717671840407821	-0.015335964627384385
-0.008165	5.037343551868253	-0.019021843571771852
-0.008164	5.0561477701894555	-0.02270772251615932
-0.008163	4.732715215064783	-0.015335964627384385
-0.008161999999999999	4.0820892611511965	-0.02270772251615932
-0.008161	3.175725938069264	-0.015335964627384385
-0.008159999999999999	2.0437119951329086	-0.0005924488498345111
-0.008159	0.8026335859335825	0.017836945872102827
-0.008158	-0.5061400092220707	0.003093430094552957
-0.008157	-1.7735443240710795	0.0215228248164903
-0.008156	-2.928123328992877	0.0325804616496527
-0.008154999999999999	-3.8946601507026553	0.03995221953842764
-0.008154	-4.594177072251367	0.0325804616496527
-0.008152999999999999	-4.985304813332366	0.04363809848281511
-0.008152	-5.056760842952934	0.03995221953842764
-0.008151	-4.797262630120347	0.025208703760877766
-0.00815	-4.24065776781277	0.04363809848281511
-0.008149	-3.3756637250374824	0.0325804616496527
-0.008147999999999999	-2.3113449680574543	0.017836945872102827
-0.008147	-1.0589840278654068	0.0215228248164903
-0.008146	0.23850703629752504	-0.011650085682996915
-0.008145	1.5209547258034954	-0.0005924488498345111
-0.008144	2.731946385688899	-0.019021843571771852
-0.008143	3.7248091130483596	-0.019021843571771852
-0.008142	4.4957820642176385	-0.03007948040493426
-0.008140999999999999	4.9583658349192055	-0.04113711723809666
-0.00814	5.086234519503378	-0.033765359349321726
-0.008139	4.890670648962878	-0.037451238293709194
-0.008138	4.371674223297705	-0.03007948040493426
-0.008137	3.570614522814504	-0.015335964627384385
-0.008136	2.540143358812639	0.010465187983327892
-0.008135	1.3366733862557167	0.014151066927715361
-0.008133999999999999	0.005334729114621318	0.010465187983327892
-0.008133	-1.2695912730628682	0.03995221953842764
-0.008132	-2.484343776612512	0.0215228248164903
-0.008131	-3.507293253285896	0.0325804616496527
-0.00813	-4.349722234075742	0.03995221953842764
-0.008128999999999999	-4.864957816076674	0.03995221953842764
-0.008128	-5.068043373945654	0.025208703760877766
-0.008126999999999999	-4.955218064018443	0.0325804616496527
-0.008126	-4.473830074995674	0.014151066927715361
-0.008125	-3.74422640413304	0.04363809848281511
-0.008124	-2.7438419894450985	0.03626634059404017
-0.008123	-1.570458766202099	0.0215228248164903
-0.008121999999999999	-0.2880110766961285	0.0067793090389404245
-0.008121	1.024523362123765	0.010465187983327892
-0.00812	2.243036709337649	-0.02270772251615932
-0.008119	3.356246433952802	-0.011650085682996915
-0.008118	4.202436258406888	-0.037451238293709194
-0.008117	4.781606182699908	-0.026393601460546787
-0.008116	5.089995363167619	-0.04113711723809666
-0.008114999999999999	5.0072568025543305	-0.011650085682996915
-0.008114	4.638694123458773	-0.02270772251615932
-0.008113	3.9278946709173406	-0.015335964627384385
-0.008112	2.980162067528764	0.0067793090389404245
-0.008111	1.8368655935996876	-0.0005924488498345111
-0.00811	0.5694612787506788	0.014151066927715361
-0.008109	-0.7430731600692149	0.0067793090389404245
-0.008107999999999999	-2.0104774749182237	0.04363809848281511
-0.008107	-3.1161655122048963	0.04363809848281511
-0.008106	-4.03757220994379	0.0325804616496527
-0.008105	-4.676915632864655	0.0215228248164903
-0.008104	-5.041717468295972	0.04363809848281511
-0.008102999999999999	-5.0379566246317316	0.028894582705265234
-0.008102	-4.733328287828261	0.04363809848281511
-0.008100999999999999	-4.086463177578915	0.028894582705265234
-0.0081	-3.183860698161223	0.0215228248164903
-0.008099	-2.0706509735460696	0.03626634059404017
-0.008098	-0.803246658697061	0.0067793090389404245
-0.008097	0.4980052491301114	0.0067793090389404245
-0.008095999999999999	1.7541270329863994	-0.007964206738609448
-0.008095	2.919988568900918	-0.015335964627384385
-0.008094	3.8978079216034174	-0.011650085682996915
-0.008093	4.597324843152128	-0.011650085682996915
-0.008092	4.988452584233128	-0.04113711723809666
-0.008091	5.093756206831859	-0.03007948040493426
-0.00809	4.849301368656234	-0.011650085682996915
-0.008088999999999999	4.266370600698975	-0.004278327794221979
-0.008088	3.405137401587927	0.003093430094552957
-0.008087	2.3558620192648605	-0.0005924488498345111
-0.008086	1.111022766401294	0.0215228248164903
-0.008085	-0.19775082875435934	0.0215228248164903
-0.008084	-1.4990027365815317	0.025208703760877766
-0.008083	-2.6648642724960503	0.0325804616496527
-0.008081999999999999	-3.7028571238263956	0.03626634059404017
-0.008081	-4.466308387667193	0.03626634059404017
-0.00808	-4.92137047104028	0.047323977427202575
-0.008079	-5.090608435931097	0.047323977427202575
-0.008078	-4.887522878062116	0.047323977427202575
-0.008076999999999999	-4.376048139725424	0.025208703760877766
-0.008076	-3.574988439242223	0.028894582705265234
-0.008074999999999999	-2.536995587911877	0.017836945872102827
-0.008074	-1.3372864590191953	0.010465187983327892
-0.008073	-0.054838769513224805	0.003093430094552957
-0.008072	1.26897820029939	-0.011650085682996915
-0.008071	2.4799698601847933	-0.0005924488498345111
-0.008069999999999999	3.521723555179379	-0.02270772251615932
-0.008069	4.334065786655302	-0.026393601460546787
-0.008067999999999999	4.879388117970157	-0.026393601460546787
-0.008067	5.086234519503378	-0.019021843571771852
-0.008066	4.965887522247686	-0.011650085682996915
-0.008065	4.529629657195802	-0.015335964627384385
-0.008064	3.7812217680119655	-0.03007948040493426
-0.008062999999999999	2.8109241026379466	-0.02270772251615932
-0.008062	1.6074541300810243	-0.0005924488498345111
-0.008061	0.3325281279035346	0.010465187983327892
-0.00806	-0.9649629362593974	0.003093430094552957
-0.008059	-2.2173238764514447	0.028894582705265234
-0.008058	-3.2966860080884346	0.028894582705265234
-0.008057	-4.176723425520684	0.03995221953842764
-0.008055999999999999	-4.789740942791866	0.047323977427202575
-0.008055	-5.052999999288693	0.047323977427202575
-0.008054	-5.011630718982049	0.047323977427202575
-0.008053	-4.62802466522953	0.05469573531597751
-0.008052	-3.9360294310092994	0.028894582705265234
-0.008050999999999999	-2.9920576712849636	0.014151066927715361
-0.00805	-1.8487611973558873	0.014151066927715361
-0.008048999999999999	-0.6039219444923207	0.010465187983327892
-0.008048	0.719895025320294	0.003093430094552957
-0.008047	1.968495121848101	-0.0005924488498345111
-0.008046	3.1117915957771776	-0.007964206738609448
-0.008045	4.0407199808445515	-0.019021843571771852
-0.008043999999999999	4.683824247429658	-0.03007948040493426
-0.008043	5.044865239196734	-0.037451238293709194
-0.008041999999999999	5.0561477701894555	-0.026393601460546787
-0.008041	4.7552802770502245	-0.026393601460546787
-0.00804	4.112176010465119	-0.02270772251615932
-0.008039	3.2208560620401485	-0.02270772251615932
-0.008038	2.122689712081957	-0.0005924488498345111
-0.008036999999999999	0.8552853972329477	-0.004278327794221979
-0.008036	-0.4384448232657438	0.017836945872102827
-0.008035	-1.7058491381147527	0.028894582705265234
-0.008034	-2.909319110671675	0.0215228248164903
-0.008033	-3.860812557724492	0.047323977427202575
-0.008032	-4.564090322937443	0.047323977427202575
-0.008031	-5.000348187989328	0.03995221953842764
-0.008029999999999999	-5.052999999288693	0.03626634059404017
-0.008029	-4.834871066762751	0.03626634059404017
-0.008028	-4.270744517126694	0.04363809848281511
-0.008027	-3.409511318015646	0.025208703760877766
-0.008026	-2.356475092028339	0.017836945872102827
-0.008025	-1.1003533081720511	-0.004278327794221979
-0.008024	0.17081185034119814	0.003093430094552957
-0.008022999999999999	1.4908679764895725	0.003093430094552957
-0.008022	2.664251199732572	0.0067793090389404245
-0.008021	3.679678989077475	-0.033765359349321726
-0.00802	4.450651940246754	-0.026393601460546787
-0.008019	4.939561616598003	-0.011650085682996915
-0.008017999999999999	5.093756206831859	-0.011650085682996915
-0.008017	4.916996554612561	-0.03007948040493426
-0.008015999999999999	4.413043503604349	-0.03007948040493426
-0.008015	3.6157446467853886	-0.007964206738609448
-0.008014	2.6040777011047256	-0.007964206738609448
-0.008013	1.3742818228981206	0.0067793090389404245
-0.008012	0.08431244606366935	0.025208703760877766
-0.008010999999999999	-1.2094177744350223	0.025208703760877766
-0.00801	-2.420409434320425	0.0215228248164903
-0.008009	-3.499771565957415	0.03626634059404017
-0.008008	-4.304592110104857	0.047323977427202575
-0.008007	-4.8423927540912315	0.028894582705265234
-0.008006	-5.075565061274135	0.05469573531597751
-0.008005	-4.947696376689962	0.05100985637159004
-0.008003999999999999	-4.507677667973837	0.017836945872102827
-0.008003	-3.7893565281039248	0.025208703760877766
-0.008002	-2.8040154880729444	0.017836945872102827
-0.008001	-1.6268714211657047	0.010465187983327892
-0.008	-0.3481845753239746	0.0067793090389404245
-0.007999	0.9605890198316784	0.003093430094552957
-0.007998	2.1753415233813223	-0.02270772251615932
-0.007996999999999999	3.292312091660716	-0.011650085682996915
-0.007996	4.172349509092966	-0.037451238293709194
-0.007995	4.781606182699908	-0.033765359349321726
-0.007994	5.067430301182176	-0.03007948040493426
-0.007993	5.029821864539772	-0.037451238293709194
-0.007991999999999999	4.6574983417799745	-0.033765359349321726
-0.007991	3.9767856385524656	-0.026393601460546787
-0.007989999999999999	3.017770504171168	-0.0005924488498345111
-0.007989	1.878234873906332	-0.004278327794221979
-0.007988	0.6183522463858038	-0.0005924488498345111
-0.007987	-0.6603345994559264	0.0215228248164903
-0.007986	-1.9277389143049353	0.025208703760877766
-0.007984999999999999	-3.063513700905531	0.03626634059404017
-0.007984	-4.007485460629867	0.04363809848281511
-0.007982999999999999	-4.658111414543453	0.03626634059404017
-0.007982	-5.01915240631053	0.03626634059404017
-0.007981	-5.0379566246317316	0.047323977427202575
-0.00798	-4.748371662485222	0.047323977427202575
-0.007979	-4.135354145214039	0.017836945872102827
-0.007977999999999999	-3.2289908221321078	0.0215228248164903
-0.007977	-2.115781097516954	0.014151066927715361
-0.007976	-0.8747026883176281	-0.007964206738609448
-0.007975	0.44911428149498644	0.0067793090389404245
-0.007974	1.682671003365832	0.014151066927715361
-0.007973	2.8861409759227543	-0.026393601460546787
-0.007972	3.8489169539682924	-0.007964206738609448
-0.007970999999999999	4.570998937502446	-0.026393601460546787
-0.00797	5.0072568025543305	-0.03007948040493426
-0.007969	5.089995363167619	-0.0005924488498345111
-0.007968	4.841779681327753	-0.011650085682996915
-0.007967	4.288935662684417	-0.007964206738609448
-0.007965999999999999	3.4502675255588118	-0.026393601460546787
-0.007965	2.3859487685787837	0.003093430094552957
-0.007963999999999999	1.1636745777006592	0.0067793090389404245
-0.007963	-0.15262070478347475	0.028894582705265234
-0.007962	-1.4313075506252049	0.014151066927715361
-0.007961	-2.6197341485251657	0.025208703760877766
-0.00796	-3.6426836251985497	0.014151066927715361
-0.007958999999999999	-4.409895732703588	0.0215228248164903
-0.007958	-4.92137047104028	0.03626634059404017
-0.007956999999999999	-5.086847592266857	0.05838161426036498
-0.007956	-4.910087940047559	0.03626634059404017
-0.007955	-4.406134889039348	0.03995221953842764
-0.007954	-3.608836032220386	0.025208703760877766
-0.007953	-2.600929930203964	0.010465187983327892
-0.007951999999999999	-1.4049816449755221	0.0067793090389404245
-0.007951	-0.10749058081259016	-0.007964206738609448
-0.00795	1.182478796021861	-0.004278327794221979
-0.007949	2.4160355178927064	-0.015335964627384385
-0.007948	3.472832587544254	-0.02270772251615932
-0.007947	4.303979037341379	-0.037451238293709194
-0.007946	4.849301368656234	-0.02270772251615932
-0.007944999999999999	5.082473675839138	-0.037451238293709194
-0.007944	4.980930896904647	-0.007964206738609448
-0.007943	4.567238093838205	-0.026393601460546787
-0.007942	3.818830204654369	-0.011650085682996915
-0.007941	2.84477169561611	-0.007964206738609448
-0.00794	1.6939535343585532	0.003093430094552957
-0.007939	0.3701365645459384	0.003093430094552957
-0.007937999999999999	-0.9047894376315513	0.010465187983327892
-0.007937	-2.1684329088163197	0.0325804616496527
-0.007936	-3.2477950404533096	0.0325804616496527
-0.007935	-4.135354145214039	0.04363809848281511
-0.007934	-4.7446108188209815	0.05100985637159004
-0.007932999999999999	-5.041717468295972	0.05100985637159004
-0.007932	-5.01915240631053	0.03995221953842764
-0.007930999999999999	-4.639307196222251	0.03626634059404017
-0.00793	-3.9849203986444244	0.014151066927715361
-0.007929	-3.0409486389200886	0.017836945872102827
-0.007928	-1.905173852319493	0.010465187983327892
-0.007927	-0.626487006477763	0.0067793090389404245
-0.007925999999999999	0.6521998393639672	-0.004278327794221979
-0.007925	1.9158433105487358	-0.026393601460546787
-0.007924	3.066661471806293	-0.015335964627384385
-0.007923	4.003111544202148	-0.011650085682996915
-0.007922	4.665020029108455	-0.011650085682996915
-0.007921	5.041104395532494	-0.03007948040493426
-0.00792	5.0636694575179355	-0.037451238293709194
-0.007918999999999999	4.781606182699908	-0.019021843571771852
-0.007918	4.138501916114802	-0.015335964627384385
-0.007917	3.2697470296752735	-0.007964206738609448
-0.007916	2.1828632107098027	-0.011650085682996915
-0.007915	0.9305022705177555	0.0067793090389404245
-0.007914	-0.38955385563061884	0.0067793090389404245
-0.007913	-1.649436483151147	0.0067793090389404245
-0.007911999999999999	-2.8341022373868676	0.017836945872102827
-0.007911	-3.8269649647463284	0.0215228248164903
-0.00791	-4.537764417287761	0.0325804616496527
-0.007909	-4.974022282339645	0.03995221953842764
-0.007908	-5.064282530281415	0.03995221953842764
-0.007906999999999999	-4.838631910426991	0.04363809848281511
-0.007906	-4.308352953769098	0.03626634059404017
-0.007904999999999999	-3.477206503971973	0.017836945872102827
-0.007904	-2.405366059663464	0.0215228248164903
-0.007903	-1.179331025121099	0.0067793090389404245
-0.007902	0.11439919537759241	0.0067793090389404245
-0.007901	1.4006077285478034	-0.011650085682996915
-0.007899999999999999	2.622881919425928	-0.007964206738609448
-0.007899	3.645831396099312	-0.019021843571771852
-0.007898	4.435608565589792	-0.019021843571771852
-0.007897	4.932039929269522	-0.0005924488498345111
-0.007896	5.0975170504961	-0.02270772251615932
-0.007895	4.928279085605282	-0.02270772251615932
-0.007894	4.431847721925552	-0.011650085682996915
-0.007892999999999999	3.6533530834277923	-0.011650085682996915
-0.007892	2.622881919425928	0.0067793090389404245
-0.007891	1.4306944778617263	0.025208703760877766
-0.00789	0.159529319348477	0.017836945872102827
-0.007889	-1.1605268067998973	0.025208703760877766
-0.007888	-2.3752793103495407	0.028894582705265234
-0.007887	-3.428315536336848	0.03626634059404017
-0.007885999999999999	-4.2820270481194145	0.04363809848281511
-0.007885	-4.827349379434271	0.05100985637159004
-0.007884	-5.060521686617174	0.047323977427202575
-0.007883	-4.951457220354203	0.03626634059404017
-0.007882	-4.552807791944723	0.05469573531597751
-0.007880999999999999	-3.830725808410569	0.05100985637159004
-0.00788	-2.85666729937231	0.014151066927715361
-0.007878999999999999	-1.6720015451365893	0.025208703760877766
-0.007878	-0.40083638662334	-0.0005924488498345111
-0.007877	0.8740896155541498	-0.03007948040493426
-0.007876	2.1339722430746777	0.0067793090389404245
-0.007875	3.2396602803613503	-0.03007948040493426
-0.007873999999999999	4.130980228786321	-0.011650085682996915
-0.007873	4.7552802770502245	-0.03007948040493426
-0.007871999999999999	5.078712832174897	-0.037451238293709194
-0.007871	5.026061020875532	-0.026393601460546787
-0.00787	4.668780872772696	-0.02270772251615932
-0.007869	4.006872387866388	-0.019021843571771852
-0.007868	3.0741831591347735	0.0067793090389404245
-0.007866999999999999	1.9534517471911395	0.003093430094552957
-0.007866	0.6822865886778902	0.003093430094552957
-0.007865	-0.6189653191492821	0.025208703760877766
-0.007864	-1.87508710300557	0.0325804616496527
-0.007863	-3.0296661079273672	0.025208703760877766
-0.007862	-3.951072805666261	0.03995221953842764
-0.007861	-4.639307196222251	0.0325804616496527
-0.007859999999999999	-5.01539156264629	0.05100985637159004
-0.007859	-5.049239155624453	0.03626634059404017
-0.007858	-4.770936724470665	0.0325804616496527
-0.007857	-4.150397519871001	0.0325804616496527
-0.007856	-3.2778817897672328	0.017836945872102827
-0.007855	-2.179715439809041	0.03626634059404017
-0.007854	-0.9386370306097147	0.010465187983327892
-0.007852999999999999	0.3701365645459384	-0.0005924488498345111
-0.007852	1.652584254051909	-0.011650085682996915
-0.007851	2.8109241026379466	-0.007964206738609448
-0.00785	3.8113085173258887	-0.015335964627384385
-0.007849	4.548433875517004	-0.02270772251615932
-0.007847999999999999	4.980930896904647	0.003093430094552957
-0.007847	5.093756206831859	-0.03007948040493426
-0.007845999999999999	4.871866430641677	-0.02270772251615932
-0.007845	4.31902241199834	-0.02270772251615932
-0.007844	3.5066801805224177	-0.0005924488498345111
-0.007843	2.4536439545351105	0.0067793090389404245
-0.007842	1.2276089199927458	0.017836945872102827
-0.007840999999999999	-0.09244720615562863	0.0215228248164903
-0.00784	-1.3711340519973587	0.028894582705265234
-0.007839	-2.5708431808900407	0.025208703760877766
-0.007838	-3.5900318138991842	0.0215228248164903
-0.007837	-4.391091514382386	0.0325804616496527
-0.007836	-4.902566252719078	0.04363809848281511
-0.007835	-5.075565061274135	0.0325804616496527
-0.007833999999999999	-4.92137047104028	0.025208703760877766
-0.007833	-4.417417420032068	0.03626634059404017
-0.007832	-3.6502053125270306	0.028894582705265234
-0.007831	-2.6385383668463676	0.028894582705265234
-0.00783	-1.4538726126106472	0.0067793090389404245
-0.007829	-0.1676640794404363	-0.0005924488498345111
-0.007828	1.141109515715217	-0.004278327794221979
-0.007826999999999999	2.3558620192648605	-0.02270772251615932
-0.007826	3.438984994566091	-0.03007948040493426
-0.007825	4.300218193677138	-0.026393601460546787
-0.007824	4.8530622123204745	-0.015335964627384385
-0.007823	5.082473675839138	-0.03007948040493426
-0.007821999999999999	4.995974271561609	-0.03007948040493426
-0.007821	4.582281468495167	-0.011650085682996915
-0.007819999999999999	3.852677797632533	-0.011650085682996915
