# Angular measurement - Y = 70.00 
# time [s]	ch1 [V]	ch2 [V]
# 
-0.008192	3.4577892128872927	-0.9699786112237386
-0.008191	4.300218193677138	-0.8741457586696644
-0.00819	4.860583899648955	-0.6861659325059035
-0.008189	5.093756206831859	-0.5129296221196925
-0.008187999999999999	4.973409209576166	-0.2586039749569573
-0.008187	4.567238093838205	0.025208703760877766
-0.008185999999999999	3.837634422975571	0.28322022986800055
-0.008185	2.8673367576015525	0.5301741191419609
-0.008184	1.701475221687034	0.7292115821388842
-0.008183	0.42654921950954416	0.9024478925250952
-0.008182	-0.8859852193103495	1.0019666240235567
-0.008180999999999999	-2.1345853158381565	1.042511292411819
-0.00818	-3.236512509460588	1.0093383819123316
-0.008178999999999999	-4.146636676206761	0.9061337714694827
-0.008178	-4.740849975156741	0.7550127347495965
-0.008177	-5.0454783119602125	0.5375458770307359
-0.008176	-5.01915240631053	0.3016496245899378
-0.008175	-4.658111414543453	0.028894582705265234
-0.008173999999999999	-3.9962029296371457	-0.22543106445747005
-0.008173	-3.063513700905531	-0.4834425905645928
-0.008172	-1.9390214452976564	-0.6935376903946785
-0.008171	-0.675377974112888	-0.8741457586696644
-0.00817	0.6634823703566883	-0.9994656427788383
-0.008169	1.9158433105487358	-1.0621255848334255
-0.008168	3.051618097149331	-1.0068374006676133
-0.008166999999999999	3.984307325880946	-0.9441774586130263
-0.008166	4.634933279794533	-0.7930564218931401
-0.008165	5.037343551868253	-0.5977048378406044
-0.008164	5.067430301182176	-0.3396933117334816
-0.008163	4.81169293201383	-0.09273942245952121
-0.008161999999999999	4.179871196421446	0.19107325625831384
-0.008161	3.314877153646158	0.42696950869911177
-0.008159999999999999	2.1979065853667645	0.6554940032511348
-0.008159	0.9605890198316784	0.8287303136373458
-0.008158	-0.3481845753239746	0.979851350357232
-0.008157	-1.630632264829945	1.0498830503005938
-0.008156	-2.8115371754014253	1.0498830503005938
-0.008154999999999999	-3.8006390590966457	0.972479592468457
-0.008154	-4.53024272995928	0.8287303136373458
-0.008152999999999999	-4.955218064018443	0.6444363664179724
-0.008152	-5.079325904938376	0.4122259929215619
-0.008151	-4.861196972412434	0.1505285878700517
-0.00815	-4.300831266440617	-0.11485469612584602
-0.008149	-3.4621631293150115	-0.37655210117735627
-0.008147999999999999	-2.4241702779846657	-0.6013907167849918
-0.008147	-1.1755701814568587	-0.8225434534482399
-0.008146	0.09935582072063089	-0.9552350954461887
-0.008145	1.378042666562361	-1.0326385532783255
-0.008144	2.600316857440485	-1.043696190111488
-0.008143	3.6007012721284273	-0.9736644901681261
-0.008142	4.41680434726859	-0.8667740007808895
-0.008140999999999999	4.898192336291359	-0.6935376903946785
-0.00814	5.1050387378245805	-0.453955559009493
-0.008139	4.939561616598003	-0.20331579079114526
-0.008138	4.454412783910994	0.08049688792668978
-0.008137	3.6759181454132346	0.32376489825626265
-0.008136	2.6680120433968124	0.5744046664746105
-0.008135	1.4720637581683707	0.7734421294715338
-0.008133999999999999	0.1783335376696789	0.9208772872470325
-0.008133	-1.1266792138217339	1.0203960187454941
-0.008132	-2.337670873707137	1.0461971713562064
-0.008131	-3.417033005344127	1.0093383819123316
-0.00813	-4.259461986133973	0.8803326188587703
-0.008128999999999999	-4.827349379434271	0.7107821874169469
-0.008128	-5.056760842952934	0.49700120864247366
-0.008126999999999999	-4.981543969668126	0.2500473193685133
-0.008126	-4.541525260952001	-0.0005924488498345111
-0.008125	-3.853290870396011	-0.28440512756766956
-0.008124	-2.8641889867007904	-0.5313590168416299
-0.008123	-1.7096099817789931	-0.7267106008941657
-0.008121999999999999	-0.4234014486087823	-0.9146904270579266
-0.008121	0.8628070845614286	-0.9884080059456759
-0.00812	2.1189288684177163	-1.0473820690558755
-0.008119	3.2133343747116676	-0.9994656427788383
-0.008118	4.1460236034432825	-0.9220621849467014
-0.008117	4.751519433385984	-0.7598835113936528
-0.008116	5.0561477701894555	-0.5424166536747923
-0.008114999999999999	5.041104395532494	-0.3102062801783818
-0.008114	4.687585091093898	-0.059566511960034
-0.008113	4.01815491885911	0.22056028781341358
-0.008112	3.108030752112937	0.4822576928649238
-0.008111	1.9835384965050626	0.6739233979730722
-0.00811	0.6973299633348518	0.8729608609699955
-0.008109	-0.6039219444923207	0.9835372293016195
-0.008107999999999999	-1.8788479466698103	1.0388254134674313
-0.008107	-3.0033402022776845	1.0351395345230439
-0.008106	-3.9247469000165784	0.9393066819689698
-0.008105	-4.6317855088937705	0.7881856452490836
-0.008104	-4.996587344325087	0.5965199401409353
-0.008102999999999999	-5.049239155624453	0.35325192981136244
-0.008102	-4.770936724470665	0.10261216159301459
-0.008100999999999999	-4.165440894527963	-0.17751463818043298
-0.0081	-3.3042076954169155	-0.4281544063987808
-0.008099	-2.2060413454587238	-0.6677365377839662
-0.008098	-0.9724846235878781	-0.8520304850033396
-0.008097	0.3325281279035346	-0.9736644901681261
-0.008095999999999999	1.6112149737452648	-1.0142091585563884
-0.008095	2.803402415309466	-1.028952674333938
-0.008094	3.796265142668927	-0.9626068533349637
-0.008093	4.5446730318527635	-0.8225434534482399
-0.008092	4.984691740568888	-0.6419353851732539
-0.008091	5.078712832174897	-0.3876097380105187
-0.00809	4.864344743313196	-0.1517134855697207
-0.008088999999999999	4.337826630319542	0.11735567737056446
-0.008088	3.5179627115151386	0.3974824771440121
-0.008087	2.461165641863591	0.6223210927516476
-0.008086	1.231369763656986	0.7955574031378586
-0.008085	-0.05107792584898442	0.9503643188021322
-0.008084	-1.3372864590191953	1.0203960187454941
-0.008083	-2.5407564315761175	1.0498830503005938
-0.008081999999999999	-3.567466751913742	0.9982807450791693
-0.008081	-4.376048139725424	0.8729608609699955
-0.00808	-4.895044565390597	0.6923527926950095
-0.008079	-5.075565061274135	0.4712000560317614
-0.008078	-4.92889215836876	0.2058167720358637
-0.008076999999999999	-4.439982482017511	-0.06325239090442147
-0.008076	-3.6878137491694343	-0.3175780380671568
-0.008074999999999999	-2.6874293344814926	-0.5645319273411171
-0.008074	-1.4952418929172913	-0.7598835113936528
-0.008073	-0.19022914142587857	-0.918376306002314
-0.008072	1.1561528903721785	-1.0142091585563884
-0.008071	2.340818644607899	-1.043696190111488
-0.008069999999999999	3.412659088916408	-1.0142091585563884
-0.008069	4.277653131691696	-0.8925751533916018
-0.008067999999999999	4.845540524991994	-0.7193388430053907
-0.008067	5.078712832174897	-0.49450022739775523
-0.008066	5.0072568025543305	-0.22911694340185754
-0.008065	4.582281468495167	0.014151066927715361
-0.008064	3.886525390610696	0.2684767140904507
-0.008062999999999999	2.912466881572437	0.5301741191419609
-0.008062	1.7466053456579185	0.7255257031944967
-0.008061	0.49048356180163066	0.8987620135807077
-0.00806	-0.803246658697061	0.9945948661347819
-0.008059	-2.063129286217589	1.0498830503005938
-0.008058	-3.1800998544969827	1.0056525029679442
-0.008057	-4.060137271929232	0.8987620135807077
-0.008055999999999999	-4.72204575683554	0.751326855805209
-0.008055	-5.034195780967491	0.5596611506970607
-0.008054	-5.0454783119602125	0.31270726142310024
-0.008053	-4.688198163857376	0.062067493204752446
-0.008052	-4.018767991622588	-0.232802822346245
-0.008050999999999999	-3.097361293883694	-0.46501319584265544
-0.00805	-1.984151569268541	-0.6972235693390659
-0.008048999999999999	-0.7129864107552917	-0.8594022428921145
-0.008048	0.5807438097433999	-0.9920938848900633
-0.008047	1.840626437263928	-1.043696190111488
-0.008046	2.9914445985214853	-1.0142091585563884
-0.008045	3.942938045574302	-0.9515492165018012
-0.008043999999999999	4.638694123458773	-0.8041140587263025
-0.008043	5.014778489882811	-0.5977048378406044
-0.008041999999999999	5.089995363167619	-0.36549446434419386
-0.008041	4.80793208834959	-0.09642530140390868
-0.00804	4.206197102071129	0.16895798259198902
-0.008039	3.3675289649455236	0.42328362975472433
-0.008038	2.25431924033037	0.640750487473585
-0.008036999999999999	1.013240831131044	0.8397879504705082
-0.008036	-0.26544601471068624	0.9651078345796822
-0.008035	-1.5742196098663392	1.0461971713562064
-0.008034	-2.7476028331093385	1.0646265660781438
-0.008033	-3.74422640413304	0.9651078345796822
-0.008032	-4.522721042630799	0.8361020715261208
-0.008031	-4.962739751346924	0.63337872958481
-0.008029999999999999	-5.056760842952934	0.40485423503278695
-0.008029	-4.876240347069396	0.17264386153637648
-0.008028	-4.342200546747261	-0.1185405750702335
-0.008027	-3.5110540969501365	-0.3691803432885813
-0.008026	-2.4655395582913098	-0.6050765957293792
-0.008025	-1.265830429398628	-0.7967423008375276
-0.008024	0.03542147842854438	-0.9441774586130263
-0.008022999999999999	1.3253908552629956	-1.0215809164451632
-0.008022	2.5627084207980815	-1.0326385532783255
-0.008021	3.578136210142985	-0.9662927322793511
-0.00802	4.3904784416189075	-0.8520304850033396
-0.008019	4.9094748672840804	-0.6935376903946785
-0.008017999999999999	5.1050387378245805	-0.4502696800651056
-0.008017	4.954604991254965	-0.21805930656869513
-0.008015999999999999	4.488260376889158	0.04363809848281511
-0.008015	3.721048269384119	0.3200790193118752
-0.008014	2.713142167367697	0.5633470296414481
-0.008013	1.5209547258034954	0.758698613693984
-0.008012	0.26107209828296735	0.92456316619142
-0.008010999999999999	-1.070266558858128	1.0056525029679442
-0.00801	-2.3000624370647333	1.0388254134674313
-0.008009	-3.3831854123659633	1.0019666240235567
-0.008008	-4.24065776781277	0.8913902556919328
-0.008007	-4.801023473784587	0.6997245505837845
-0.008006	-5.075565061274135	0.5301741191419609
-0.008005	-4.977783126003885	0.2574190772572883
-0.008003999999999999	-4.586655384922886	-0.004278327794221979
-0.008003	-3.8833776197099343	-0.26597573284573217
-0.008002	-2.931884172657117	-0.5092437431753051
-0.008001	-1.7735443240710795	-0.7377682377273281
-0.008	-0.5061400092220707	-0.8888892744472143
-0.007999	0.7951118986051016	-1.0031515217232259
-0.007998	2.062516213454111	-1.0363244322227132
-0.007996999999999999	3.183247625397745	-1.010523279612001
-0.007996	4.078328417486956	-0.9220621849467014
-0.007995	4.732715215064783	-0.7488258745604905
-0.007994	5.059908613853696	-0.5755895641742795
-0.007993	5.067430301182176	-0.2991486433452194
-0.007991999999999999	4.71015015307934	-0.052194754071259064
-0.007991	4.067045886494235	0.2058167720358637
-0.007989999999999999	3.1456391887553408	0.45645654025421156
-0.007989	2.028668620475947	0.6997245505837845
-0.007988	0.7875902112766209	0.8545314662480581
-0.007987	-0.5399876022002341	0.9909089871903944
-0.007986	-1.8036310733850027	1.0461971713562064
-0.007984999999999999	-2.9582100783068	1.0351395345230439
-0.007984	-3.902181838031136	0.9503643188021322
-0.007982999999999999	-4.62426382156529	0.8029291610266336
-0.007982	-4.9890656569966065	0.6002058190853228
-0.007981	-5.071804217609895	0.3606236877001373
-0.00798	-4.804784317448828	0.09524040370423965
-0.007979	-4.203049331170367	-0.16645700134727057
-0.007977999999999999	-3.341816132059319	-0.40603913273245595
-0.007977	-2.2737365314150506	-0.6419353851732539
-0.007976	-1.0251364348872434	-0.8225434534482399
-0.007975	0.2685937856114481	-0.9773503691125135
-0.007974	1.554802318781659	-1.0142091585563884
-0.007973	2.765793978667062	-1.0363244322227132
-0.007972	3.754895862362283	-0.9515492165018012
-0.007970999999999999	4.510825438874599	-0.8262293323926273
-0.00797	4.965887522247686	-0.6456212641176414
-0.007969	5.089995363167619	-0.41341089062123093
-0.007968	4.875627274305917	-0.16645700134727057
-0.007967	4.360391692304985	0.09524040370423965
-0.007965999999999999	3.548049460829062	0.3827389613664621
-0.007965	2.525099984155678	0.5965199401409353
-0.007963999999999999	1.280260731292111	0.8029291610266336
-0.007963	0.0090955727788617	0.9356208030245824
-0.007962	-1.2996780223767914	1.0314536555786564
-0.007961	-2.4993871512694734	1.0646265660781438
-0.00796	-3.537380002599819	0.9651078345796822
-0.007958999999999999	-4.353483077739982	0.8655891030812205
-0.007958	-4.872479503405155	0.6923527926950095
-0.007956999999999999	-5.071804217609895	0.46751417708737397
-0.007956	-4.943935533025722	0.20213089309147622
-0.007955	-4.4851126059883955	-0.048508875126871596
-0.007954	-3.7179004984833575	-0.32494979595593165
-0.007953	-2.7287986147881367	-0.5534742905079547
-0.007951999999999999	-1.5328503295596951	-0.7635693903380404
-0.007951	-0.2541634837179651	-0.918376306002314
-0.00795	1.0358058931164862	-1.0178950375007758
-0.007949	2.2731234586515723	-1.0326385532783255
-0.007948	3.375050652274004	-1.0068374006676133
-0.007947	4.2438055387135325	-0.8741457586696644
-0.007946	4.8041712446853495	-0.7377682377273281
-0.007944999999999999	5.074951988510657	-0.5203013800084675
-0.007944	5.00349595889009	-0.2770333696788946
-0.007943	4.597324843152128	0.014151066927715361
-0.007942	3.9128512962603788	0.2574190772572883
-0.007941	2.9726403802002834	0.5191164823087985
-0.00794	1.8218222189427262	0.7255257031944967
-0.007939	0.5393745294367556	0.8987620135807077
-0.007937999999999999	-0.7769207530473783	0.9982807450791693
-0.007937	-2.0179991622467046	1.0351395345230439
-0.007936	-3.1424914178545786	1.013024260856719
-0.007935	-4.03757220994379	0.9282490451358074
-0.007934	-4.703241538514337	0.7660703715827588
-0.007932999999999999	-5.030434937303251	0.5670329085858355
-0.007932	-5.041717468295972	0.3200790193118752
-0.007930999999999999	-4.710763225842818	0.05469573531597751
-0.00793	-4.075180646586194	-0.21805930656869513
-0.007929	-3.1763390108327423	-0.4723849537314304
-0.007928	-2.0556075988891083	-0.7009094482834534
-0.007927	-0.784442440375859	-0.8483446060589521
-0.007925999999999999	0.5468962167652365	-0.9884080059456759
-0.007925	1.791735469628803	-1.0326385532783255
-0.007924	2.961357849207562	-1.0215809164451632
-0.007923	3.901568765267658	-0.9441774586130263
-0.007922	4.61612906147333	-0.8114858166150775
-0.007921	5.026061020875532	-0.6050765957293792
-0.00792	5.082473675839138	-0.36549446434419386
-0.007918999999999999	4.81169293201383	-0.10748293823707109
-0.007918	4.240044695049292	0.1468427089256642
-0.007917	3.3712898086097636	0.4122259929215619
-0.007916	2.3069710516297355	0.6370646085291974
-0.007915	1.0658926424304092	0.8361020715261208
-0.007914	-0.22407673440404202	0.9651078345796822
-0.007913	-1.5102852675742529	1.0351395345230439
-0.007911999999999999	-2.6987118654742135	1.0498830503005938
-0.007911	-3.721661342147598	0.9614219556352946
-0.00791	-4.466308387667193	0.8287303136373458
-0.007909	-4.932653002033001	0.6444363664179724
-0.007908	-5.075565061274135	0.41591187186594936
-0.007906999999999999	-4.861196972412434	0.17264386153637648
-0.007906	-4.364765608732704	-0.09642530140390868
-0.007904999999999999	-3.5411408462640592	-0.35443682751103145
-0.007904	-2.5069088385979543	-0.6087624746737668
-0.007903	-1.3034388660410317	-0.7783129061155902
-0.007902	-0.013469489206580594	-0.9478633375574138
-0.007901	1.2727390439636304	-1.0252667953895507
-0.007899999999999999	2.468687329192072	-1.028952674333938
-0.007899	3.5555711481575427	-0.9920938848900633
-0.007898	4.367913379633465	-0.8741457586696644
-0.007897	4.879388117970157	-0.7009094482834534
-0.007896	5.093756206831859	-0.4797567116202054
-0.007895	4.9583658349192055	-0.21068754867992018
-0.007894	4.51834712620308	0.03626634059404017
-0.007892999999999999	3.766178393355004	0.30533550353432537
-0.007892	2.765793978667062	0.5670329085858355
-0.007891	1.5886499117598225	0.7476409768608215
-0.00789	0.3137239095823327	0.9024478925250952
-0.007889	-1.0176147475587627	1.0093383819123316
-0.007888	-2.232367251108406	1.042511292411819
-0.007887	-3.311729382745396	1.0019666240235567
-0.007885999999999999	-4.188005956513405	0.9135055293582576
-0.007885	-4.789740942791866	0.7328974610832717
-0.007884	-5.064282530281415	0.5264882401975735
-0.007883	-4.966500595011165	0.279534350923613
-0.007882	-4.605459603244087	0.010465187983327892
-0.007880999999999999	-3.913464369023857	-0.25123221706818233
-0.00788	-2.946927547314079	-0.5129296221196925
-0.007878999999999999	-1.826196135370445	-0.7340823587829406
-0.007878	-0.547509289528715	-0.8925751533916018
-0.007877	0.7800685239481402	-1.0031515217232259
-0.007876	1.9910601838335433	-1.051067948000263
-0.007875	3.13435665776262	-1.0215809164451632
-0.007873999999999999	4.052002511837273	-0.925748063891089
-0.007873	4.702628465750859	-0.7746270271712028
-0.007871999999999999	5.033582708204013	-0.5571601694523421
-0.007871	5.067430301182176	-0.3286356749003192
-0.00787	4.736476058729022	-0.06693826984880893
-0.007869	4.100893479472398	0.20213089309147622
-0.007868	3.209573531047427	0.4712000560317614
-0.007866999999999999	2.088842119103793	0.6849810348062346
-0.007866	0.8327203352475054	0.8619032241368331
-0.007865	-0.4722924162439073	0.9909089871903944
-0.007864	-1.7359358874286757	1.042511292411819
-0.007863	-2.909319110671675	1.0167101398011067
-0.007862	-3.8683342450529725	0.9429925609133574
-0.007861	-4.575372853930165	0.813986797859796
-0.007859999999999999	-5.004109031653568	0.6112634559184852
-0.007859	-5.060521686617174	0.37536720347768726
-0.007858	-4.801023473784587	0.12472743525933941
-0.007857	-4.248179455141251	-0.1517134855697207
-0.007856	-3.3869462560302037	-0.42446852745439334
-0.007855	-2.3226274990501756	-0.6382495062288664
-0.007854	-1.0815490898508493	-0.8114858166150775
-0.007852999999999999	0.2234636616405635	-0.9589209743905762
-0.007852	1.5134330384750148	-1.0400103111671006
-0.007851	2.705620480039216	-1.0215809164451632
-0.00785	3.6909615200701964	-0.9736644901681261
-0.007849	4.484499533224917	-0.8225434534482399
-0.007847999999999999	4.9508441475907246	-0.6640506588395787
-0.007847	5.082473675839138	-0.40603913273245595
-0.007845999999999999	4.90571402361984	-0.19225815395798285
-0.007845	4.3980001289473885	0.09524040370423965
-0.007844	3.5856578974714655	0.36430956664452485
-0.007843	2.5627084207980815	0.5854623033077729
-0.007842	1.3441950735841977	0.7955574031378586
-0.007840999999999999	0.06174738407822705	0.9356208030245824
-0.00784	-1.2319828364204646	1.0240818976898816
-0.007839	-2.4655395582913098	1.0388254134674313
-0.007838	-3.488489034964694	0.9909089871903944
-0.007837	-4.319635484761819	0.8692749820256079
-0.007836	-4.849914441419712	0.7107821874169469
-0.007835	-5.079325904938376	0.4712000560317614
-0.007833999999999999	-4.958978907682684	0.22056028781341358
-0.007833	-4.4851126059883955	-0.04482299618248413
-0.007832	-3.7667914661184825	-0.31389215912276924
-0.007831	-2.7739287387590212	-0.5645319273411171
-0.00783	-1.5967846718517815	-0.7414541166717156
-0.007829	-0.3180978260100516	-0.9073186691691516
-0.007828	1.0057191438025632	-1.0031515217232259
-0.007826999999999999	2.2279933346806873	-1.051067948000263
-0.007826	3.341203059295841	-1.0068374006676133
-0.007825	4.191153727414167	-0.911004548113539
-0.007824	4.796649557356869	-0.7303964798385532
-0.007823	5.078712832174897	-0.5129296221196925
-0.007821999999999999	5.014778489882811	-0.2807192486232821
-0.007821	4.6499766544514936	-0.015335964627384385
-0.007819999999999999	3.954220576567023	0.2574190772572883
-0.007819	2.9989662858499657	0.515430603364411
-0.007818	1.8744740302420915	0.7107821874169469
-0.007817	0.6108305590573229	0.8877043767475453
-0.007816	-0.705464723426811	0.9909089871903944
-0.007814999999999999	-1.9615865072830987	1.0535689292449812
-0.007814	-3.093600450219454	1.013024260856719
-0.007813	-4.007485460629867	0.917191408302645
-0.0078119999999999995	-4.669393945536174	0.7660703715827588
-0.007810999999999999	-5.02291324997477	0.5707187875302231
-0.007809999999999999	-5.0454783119602125	0.34588017192258746
