# Angular measurement - Y = -97.00 
# time [s]	ch1 [V]	ch2 [V]
# 
-0.008192	3.8902862342749365	-0.2807192486232821
-0.008191	4.582281468495167	-0.39498149589929354
-0.00819	5.014778489882811	-0.5018719852865301
-0.008189	5.082473675839138	-0.5645319273411171
-0.008187999999999999	4.826736306670792	-0.5866472010074419
-0.008187	4.236283851385052	-0.571903685229892
-0.008185999999999999	3.3863331832667254	-0.49818610634214266
-0.008185	2.3295361136151778	-0.4318402853431683
-0.008184	1.0959793917443323	-0.3102062801783818
-0.008183	-0.21279420341132088	-0.18120051712482044
-0.008182	-1.4914810492530508	-0.02270772251615932
-0.008180999999999999	-2.653581741503329	0.10998391948178952
-0.00818	-3.6802920618409534	0.2684767140904507
-0.008178999999999999	-4.455025856674473	0.40485423503278695
-0.008178	-4.943935533025722	0.48594357180931125
-0.008177	-5.056760842952934	0.5891481822521604
-0.008176	-4.8912837217263565	0.5891481822521604
-0.008175	-4.3798089833896645	0.5744046664746105
-0.008173999999999999	-3.5712275955779824	0.5559752717526731
-0.008173	-2.5670823372258003	0.46382829814298643
-0.008172	-1.3598515210046376	0.36430956664452485
-0.008171	-0.05107792584898442	0.23530380359096345
-0.00817	1.238891450985467	0.07312513003791485
-0.008169	2.468687329192072	-0.08536766457074628
-0.008168	3.510441024186658	-0.21805930656869513
-0.008166999999999999	4.3415874739837825	-0.3618085853998064
-0.008166	4.890670648962878	-0.46501319584265544
-0.008165	5.0975170504961	-0.5534742905079547
-0.008164	4.965887522247686	-0.5940189588962168
-0.008163	4.540912188188523	-0.5682178062855046
-0.008161999999999999	3.777460924347725	-0.5497884115635672
-0.008161	2.803402415309466	-0.46501319584265544
-0.008159999999999999	1.622497504737986	-0.3802379801217437
-0.008159	0.3475715025604961	-0.22911694340185754
-0.008158	-0.9574412489309165	-0.07062414879319641
-0.008157	-2.2060413454587238	0.06943925109352739
-0.008156	-3.292925164424194	0.22056028781341358
-0.008154999999999999	-4.1842451128491644	0.3385084140338126
-0.008154	-4.767175880806424	0.46382829814298643
-0.008152999999999999	-5.052999999288693	0.5449176349195108
-0.008152	-5.007869875317809	0.5854623033077729
-0.008151	-4.6317855088937705	0.6075775769740978
-0.00815	-3.9435511183377803	0.5744046664746105
-0.008149	-2.9995793586134445	0.5191164823087985
-0.008147999999999999	-1.8487611973558873	0.4011683560883995
-0.008147	-0.5851177261711187	0.29427786670116296
-0.008146	0.7274167126487747	0.13947095103688928
-0.008145	1.9948210274977838	-0.011650085682996915
-0.008144	3.119313283105658	-0.17382875923604552
-0.008143	4.052002511837273	-0.31389215912276924
-0.008142	4.695106778422378	-0.4318402853431683
-0.008140999999999999	5.026061020875532	-0.5276731378972425
-0.00814	5.078712832174897	-0.5645319273411171
-0.008139	4.740236902393263	-0.5903330799518294
-0.008138	4.134741072450561	-0.5571601694523421
-0.008137	3.217095218375908	-0.48712846950898026
-0.008136	2.122689712081957	-0.3912956169549061
-0.008135	0.8703287718899093	-0.29546276440083197
-0.008133999999999999	-0.4459665105942246	-0.1295982119033959
-0.008133	-1.7434575747571566	0.003093430094552957
-0.008132	-2.8754715176935117	0.1468427089256642
-0.008131	-3.8570517140602516	0.279534350923613
-0.00813	-4.560329479273203	0.41591187186594936
-0.008128999999999999	-4.962739751346924	0.5191164823087985
-0.008128	-5.075565061274135	0.578090545418998
-0.008126999999999999	-4.834871066762751	0.6038916980297103
-0.008126	-4.255701142469732	0.578090545418998
-0.008125	-3.4057504743514055	0.5375458770307359
-0.008124	-2.348953404699858	0.452770661309824
-0.008123	-1.0928316208435704	0.34219429297820003
-0.008121999999999999	0.19337691232664045	0.20950265098025117
-0.008121	1.4758246018326109	0.05100985637159004
-0.00812	2.664251199732572	-0.11485469612584602
-0.008119	3.6909615200701964	-0.25123221706818233
-0.008118	4.458173627575234	-0.3876097380105187
-0.008117	4.943322460262244	-0.4908143484533678
-0.008116	5.089995363167619	-0.5608460483967296
-0.008114999999999999	4.920757398276802	-0.579275443118667
-0.008114	4.405521816275869	-0.5682178062855046
-0.008113	3.6157446467853886	-0.5313590168416299
-0.008112	2.596556013776245	-0.46501319584265544
-0.008111	1.378042666562361	-0.35443682751103145
-0.00811	0.10311666438487127	-0.20700166973553272
-0.008109	-1.2131786180992625	-0.048508875126871596
-0.008107999999999999	-2.4392136526416275	0.08049688792668978
-0.008107	-3.477206503971973	0.23530380359096345
-0.008106	-4.304592110104857	0.37536720347768726
-0.008105	-4.853675285083953	0.460142419198599
-0.008104	-5.079325904938376	0.5633470296414481
-0.008102999999999999	-4.955218064018443	0.5817764243633855
-0.008102	-4.515199355302318	0.5928340611965479
-0.008100999999999999	-3.781834840775444	0.5559752717526731
-0.0081	-2.8152980190656653	0.4822576928649238
-0.008099	-1.6343931084941854	0.39379659819962454
-0.008098	-0.3444237316597343	0.26479083514606316
-0.008097	0.9568281761674382	0.10998391948178952
-0.008095999999999999	2.201667429031005	-0.04482299618248413
-0.008095	3.284790404332235	-0.17751463818043298
-0.008094	4.176110352757205	-0.3286356749003192
-0.008093	4.781606182699908	-0.4502696800651056
-0.008092	5.052386926525215	-0.5313590168416299
-0.008091	5.022300177211291	-0.5866472010074419
-0.00809	4.653737498115734	-0.5940189588962168
-0.008088999999999999	3.984307325880946	-0.5682178062855046
-0.008088	3.0403355661566103	-0.49818610634214266
-0.008087	1.8819957175705724	-0.38392385906613113
-0.008086	0.622113090050044	-0.2770333696788946
-0.008085	-0.6603345994559264	-0.13328409084778337
-0.008084	-1.935260601633416	0.03995221953842764
-0.008083	-3.0597528572412904	0.17264386153637648
-0.008081999999999999	-3.988681242308665	0.3163931403674878
-0.008081	-4.6806764765288955	0.44539890342104915
-0.00808	-5.011630718982049	0.5338599980863484
-0.008079	-5.060521686617174	0.5744046664746105
-0.008078	-4.763415037142184	0.5928340611965479
-0.008076999999999999	-4.127832457885559	0.5744046664746105
-0.008076	-3.244034196789069	0.522802361253186
-0.008074999999999999	-2.1383461595023965	0.43434126658788674
-0.008074	-0.8897460629745897	0.31270726142310024
-0.008073	0.4190275321810634	0.16158622470321407
-0.008072	1.6977143780227935	0.0067793090389404245
-0.008071	2.878619288594274	-0.13328409084778337
-0.008069999999999999	3.845156110304052	-0.2696616117901197
-0.008069	4.574759781166686	-0.3986673748436811
-0.008067999999999999	4.984691740568888	-0.4834425905645928
-0.008067	5.086234519503378	-0.5461025326191797
-0.008066	4.849301368656234	-0.5829613220630544
-0.008065	4.288935662684417	-0.571903685229892
-0.008064	3.442745838230331	-0.51661550106408
-0.008062999999999999	2.3633837065933414	-0.42446852745439334
-0.008062	1.1599137340364187	-0.31389215912276924
-0.008061	-0.15638154844771512	-0.17382875923604552
-0.00806	-1.4388292379536856	-0.033765359349321726
-0.008059	-2.6197341485251657	0.113669798426177
-0.008058	-3.6389227815343093	0.2574190772572883
-0.008057	-4.421178263696309	0.4011683560883995
-0.008055999999999999	-4.902566252719078	0.5080588454756361
-0.008055	-5.075565061274135	0.5559752717526731
-0.008054	-4.92137047104028	0.6075775769740978
-0.008053	-4.406134889039348	0.5891481822521604
-0.008052	-3.635161937870069	0.5522893928082857
-0.008050999999999999	-2.6084516175324444	0.4490847823654366
-0.00805	-1.4049816449755221	0.34588017192258746
-0.008048999999999999	-0.12253395546955169	0.2168744088690261
-0.008048	1.182478796021861	0.07312513003791485
-0.008047	2.4122746742284664	-0.08905354351513374
-0.008046	3.472832587544254	-0.21437342762430767
-0.008045	4.303979037341379	-0.34337919067786904
-0.008043999999999999	4.841779681327753	-0.461327316898268
-0.008043	5.082473675839138	-0.5313590168416299
-0.008041999999999999	4.977170053240407	-0.571903685229892
-0.008041	4.563477250173965	-0.5866472010074419
-0.00804	3.82635189198285	-0.5645319273411171
-0.008039	2.84477169561611	-0.4723849537314304
-0.008038	1.671388472373111	-0.38392385906613113
-0.008036999999999999	0.38894078286714034	-0.23648870129063246
-0.008036	-0.9047894376315513	-0.10748293823707109
-0.008035	-2.1270636285096756	0.05838161426036498
-0.008034	-3.25155588411755	0.1947591352027013
-0.008033	-4.161680050863723	0.3495660508669749
-0.008032	-4.748371662485222	0.46382829814298643
-0.008031	-5.052999999288693	0.5191164823087985
-0.008029999999999999	-5.004109031653568	0.5891481822521604
-0.008029	-4.643068039886492	0.6186352138072602
-0.008028	-3.9924420859729053	0.5817764243633855
-0.008027	-3.037187795255848	0.515430603364411
-0.008026	-1.8938913213267718	0.40485423503278695
-0.008025	-0.6528129121274455	0.286906108812388
-0.008024	0.6446781520354863	0.14315682998127674
-0.008022999999999999	1.9120824668844953	-0.02270772251615932
-0.008022	3.0929873774559753	-0.17382875923604552
-0.008021	3.9993507005379074	-0.3102062801783818
-0.00802	4.668780872772696	-0.4281544063987808
-0.008019	5.022300177211291	-0.49818610634214266
-0.008017999999999999	5.0561477701894555	-0.5645319273411171
-0.008017	4.770323651707186	-0.5866472010074419
-0.008015999999999999	4.164827821764485	-0.5755895641742795
-0.008015	3.277268717003754	-0.51661550106408
-0.008014	2.1602981487243604	-0.3986673748436811
-0.008013	0.9192197395250343	-0.288091006512057
-0.008012	-0.36698879364517656	-0.1627711224028831
-0.008010999999999999	-1.6381539521584259	-0.0005924488498345111
-0.00801	-2.819058862729906	0.14315682998127674
-0.008009	-3.811921590089367	0.2684767140904507
-0.008008	-4.541525260952001	0.4195977508103369
-0.008007	-4.955218064018443	0.5117447244200236
-0.008006	-5.086847592266857	0.578090545418998
-0.008005	-4.857436128748193	0.6002058190853228
-0.008003999999999999	-4.2820270481194145	0.5891481822521604
-0.008003	-3.45088059832229	0.522802361253186
-0.008002	-2.405366059663464	0.46382829814298643
-0.008001	-1.1755701814568587	0.34588017192258746
-0.008	0.11439919537759241	0.20950265098025117
-0.007999	1.4419770088544475	0.03995221953842764
-0.007998	2.596556013776245	-0.10011118034829615
-0.007996999999999999	3.62702717777811	-0.25491809601256976
-0.007996	4.42056519093283	-0.3876097380105187
-0.007995	4.90571402361984	-0.47607083267581785
-0.007994	5.086234519503378	-0.5350448957860173
-0.007993	4.935800772933763	-0.5829613220630544
-0.007991999999999999	4.424326034597071	-0.5092437431753051
-0.007991	3.668396458084754	-0.5387307747304049
-0.007989999999999999	2.6529686687398506	-0.4502696800651056
-0.007989	1.4344553215259668	-0.34337919067786904
-0.007988	0.17457269400543854	-0.21068754867992018
-0.007987	-1.1454834321429357	-0.048508875126871596
-0.007986	-2.356475092028339	0.10261216159301459
-0.007984999999999999	-3.439598067329569	0.23161792464657596
-0.007984	-4.278266204455174	0.3495660508669749
-0.007982999999999999	-4.827349379434271	0.4712000560317614
-0.007982	-5.079325904938376	0.5559752717526731
-0.007981	-4.955218064018443	0.5744046664746105
-0.00798	-4.5340035736235205	0.5891481822521604
-0.007979	-3.8269649647463284	0.5817764243633855
-0.007977999999999999	-2.837863081051108	0.5117447244200236
-0.007977	-1.6945666071220316	0.3974824771440121
-0.007976	-0.40083638662334	0.2684767140904507
-0.007975	0.8816113028826305	0.09892628264862713
-0.007974	2.1414939304031586	-0.02270772251615932
-0.007973	3.2396602803613503	-0.19225815395798285
-0.007972	4.153545290771763	-0.33600743278909406
-0.007970999999999999	4.759041120714465	-0.4428979221763307
-0.00797	5.052386926525215	-0.51661550106408
-0.007969	5.018539333547051	-0.5682178062855046
-0.007968	4.683824247429658	-0.5829613220630544
-0.007967	4.014394075194869	-0.5461025326191797
-0.007965999999999999	3.0892265337917353	-0.49450022739775523
-0.007965	1.938408372534178	-0.3691803432885813
-0.007963999999999999	0.6822865886778902	-0.25491809601256976
-0.007963	-0.6227261628135226	-0.12591233295900842
-0.007962	-1.8826087903340507	0.014151066927715361
-0.007961	-3.025905264263127	0.16895798259198902
-0.00796	-3.9585944929947416	0.3090213824787128
-0.007958999999999999	-4.6317855088937705	0.41591187186594936
-0.007958	-5.000348187989328	0.5338599980863484
-0.007956999999999999	-5.052999999288693	0.5891481822521604
-0.007956	-4.752132506149462	0.5817764243633855
-0.007955	-4.161680050863723	0.5670329085858355
-0.007954	-3.300446851752675	0.5264882401975735
-0.007953	-2.190997970801762	0.43434126658788674
-0.007951999999999999	-0.9423978742739552	0.30533550353432537
-0.007951	0.35885403355321727	0.17632974048076394
-0.00795	1.6450625667234282	0.003093430094552957
-0.007949	2.814684946302187	-0.13328409084778337
-0.007948	3.8113085173258887	-0.2770333696788946
-0.007947	4.548433875517004	-0.4097250116768435
-0.007946	4.973409209576166	-0.48712846950898026
-0.007944999999999999	5.074951988510657	-0.5534742905079547
-0.007944	4.834257993999272	-0.5866472010074419
-0.007943	4.3152615683341	-0.5645319273411171
-0.007942	3.4878759622012154	-0.5313590168416299
-0.007941	2.4310788925496682	-0.4392120432319432
-0.00794	1.2050438580073035	-0.32494979595593165
-0.007939	-0.11125142447683053	-0.21068754867992018
-0.007937999999999999	-1.3824165829900799	-0.033765359349321726
-0.007937	-2.6084516175324444	0.0915545247598522
-0.007936	-3.6125968758846265	0.2684767140904507
-0.007935	-4.398613201710867	0.40485423503278695
-0.007934	-4.895044565390597	0.48594357180931125
-0.007932999999999999	-5.079325904938376	0.5670329085858355
-0.007932	-4.91760962737604	0.6075775769740978
-0.007930999999999999	-4.43622163835327	0.6112634559184852
-0.00793	-3.672770374512473	0.5670329085858355
-0.007929	-2.66110342883181	0.4712000560317614
-0.007928	-1.4576334562748874	0.36430956664452485
-0.007927	-0.17142492310467666	0.2279320457021885
-0.007925999999999999	1.122305297394015	0.10629804053740206
-0.007925	2.3558620192648605	-0.04482299618248413
-0.007924	3.43146330723761	-0.21805930656869513
-0.007923	4.273892288027455	-0.3581227064554189
-0.007922	4.845540524991994	-0.461327316898268
-0.007921	5.082473675839138	-0.5387307747304049
-0.00792	4.977170053240407	-0.579275443118667
-0.007918999999999999	4.582281468495167	-0.5755895641742795
-0.007918	3.845156110304052	-0.5645319273411171
-0.007917	2.8560542266088316	-0.48712846950898026
-0.007916	1.7165185963439955	-0.37286622223296884
-0.007915	0.4378317505022653	-0.22911694340185754
-0.007914	-0.8596593136606667	-0.11116881718145855
-0.007913	-2.081933504538791	0.047323977427202575
-0.007911999999999999	-3.2064257601466655	0.21318852992463863
-0.007911	-4.109028239564357	0.3385084140338126
-0.00791	-4.710763225842818	0.42328362975472433
-0.007909	-5.034195780967491	0.5338599980863484
-0.007908	-5.01539156264629	0.5928340611965479
-0.007906999999999999	-4.676915632864655	0.6223210927516476
-0.007906	-4.030050522615309	0.5670329085858355
-0.007904999999999999	-3.093600450219454	0.5117447244200236
-0.007904	-1.9578256636188582	0.4195977508103369
-0.007903	-0.7129864107552917	0.286906108812388
-0.007902	0.5995480280646017	0.15421446681443915
-0.007901	1.8707131865778512	0.0067793090389404245
-0.007899999999999999	3.029053035163889	-0.14434172768094577
-0.007899	3.9466988892385424	-0.3065204012339944
-0.007898	4.619889905137571	-0.42446852745439334
-0.007897	5.033582708204013	-0.5018719852865301
-0.007896	5.059908613853696	-0.5571601694523421
-0.007895	4.796649557356869	-0.5866472010074419
-0.007894	4.176110352757205	-0.5682178062855046
-0.007892999999999999	3.322398840974639	-0.5018719852865301
-0.007892	2.2242324910164473	-0.4207826485100059
-0.007891	0.9981974564740823	-0.29177688545644453
-0.00789	-0.3105761386815708	-0.13328409084778337
-0.007889	-1.600545515516022	-0.007964206738609448
-0.007888	-2.770167895094781	0.1468427089256642
-0.007887	-3.7667914661184825	0.27216259303483814
-0.007885999999999999	-4.511438511638078	0.4011683560883995
-0.007885	-4.951457220354203	0.515430603364411
-0.007884	-5.075565061274135	0.5670329085858355
-0.007883	-4.864957816076674	0.6038916980297103
-0.007882	-4.3309180157545395	0.5744046664746105
-0.007880999999999999	-3.5035324096216556	0.5338599980863484
-0.00788	-2.4392136526416275	0.43434126658788674
-0.007878999999999999	-1.2395045237489453	0.3311366561450376
-0.007878	0.07679075873518859	0.2168744088690261
-0.007877	1.3554776045769188	0.05838161426036498
-0.007876	2.573990951790803	-0.09642530140390868
-0.007875	3.6082229594569077	-0.24754633812379487
-0.007873999999999999	4.42056519093283	-0.37286622223296884
-0.007873	4.920757398276802	-0.46501319584265544
-0.007871999999999999	5.086234519503378	-0.5424166536747923
-0.007871	4.932039929269522	-0.571903685229892
-0.00787	4.473217002232196	-0.571903685229892
-0.007869	3.717287425719879	-0.5313590168416299
-0.007868	2.705620480039216	-0.45764143795388057
-0.007866999999999999	1.5021505074822936	-0.3470650696222565
-0.007866	0.21970281797632313	-0.20331579079114526
-0.007865	-1.1041141518362916	-0.059566511960034
-0.007864	-2.288779906072012	0.08418276687107726
-0.007863	-3.3944679433586846	0.2279320457021885
-0.007862	-4.24065776781277	0.3716813245332997
-0.007861	-4.812306004777309	0.4785718139205364
-0.007859999999999999	-5.075565061274135	0.5559752717526731
-0.007859	-4.992826500660847	0.5854623033077729
-0.007858	-4.560329479273203	0.6038916980297103
-0.007857	-3.8758559323814534	0.5596611506970607
-0.007856	-2.905558267007435	0.4933153296980862
-0.007855	-1.7396967310929161	0.4011683560883995
-0.007854	-0.4685315725796669	0.2684767140904507
-0.007852999999999999	0.8364811789117459	0.12104155631495193
-0.007852	2.0813204317753127	-0.03007948040493426
-0.007851	3.205812687383187	-0.18488639606920793
-0.00785	4.093371792143917	-0.31389215912276924
-0.007849	4.728954371400542	-0.4318402853431683
-0.007847999999999999	5.048626082860975	-0.5055578642309176
-0.007847	5.052386926525215	-0.5829613220630544
-0.007845999999999999	4.71015015307934	-0.579275443118667
-0.007845	4.052002511837273	-0.5608460483967296
-0.007844	3.13811750142686	-0.48712846950898026
-0.007843	2.006103558490505	-0.39498149589929354
-0.007842	0.7575034619626979	-0.26597573284573217
-0.007840999999999999	-0.5587918205214362	-0.10379705929268361
-0.00784	-1.826196135370445	-0.0005924488498345111
-0.007839	-2.995818514949204	0.1468427089256642
-0.007838	-3.928507743680819	0.32376489825626265
-0.007837	-4.597937915915607	0.4380271455322742
-0.007836	-4.996587344325087	0.522802361253186
-0.007835	-5.068043373945654	0.5522893928082857
-0.007833999999999999	-4.767175880806424	0.6112634559184852
-0.007833	-4.203049331170367	0.5817764243633855
-0.007832	-3.3455769757235596	0.5412317559751233
-0.007831	-2.2549323130938483	0.43434126658788674
-0.00783	-1.010093060230282	0.3311366561450376
-0.007829	0.3099630659180923	0.16527210364760156
-0.007828	1.573606537102861	0.0215228248164903
-0.007826999999999999	2.754511447674341	-0.12591233295900842
-0.007826	3.7586567060265232	-0.2586039749569573
-0.007825	4.529629657195802	-0.38392385906613113
-0.007824	4.962126678583446	-0.49450022739775523
-0.007823	5.074951988510657	-0.5608460483967296
-0.007821999999999999	4.890670648962878	-0.579275443118667
-0.007821	4.349109161312263	-0.579275443118667
-0.007819999999999999	3.548049460829062	-0.5313590168416299
-0.007819	2.476209016520553	-0.4502696800651056
-0.007818	1.2840215749563515	-0.3212639170115442
-0.007817	-0.03603455119202289	-0.17751463818043298
-0.007816	-1.3260039280264742	-0.05588063301564653
-0.007814999999999999	-2.5219522132549157	0.10998391948178952
-0.007814	-3.5637059082495015	0.25373319831290075
-0.007813	-4.349722234075742	0.40485423503278695
-0.0078119999999999995	-4.876240347069396	0.47488593497614884
