# Angular measurement - Y = 30.00 
# time [s]	ch1 [V]	ch2 [V]
# 
-0.008192	3.265986186011033	-2.0388835050961043
-0.008191	4.157306134436004	-1.7218979158787822
-0.00819	4.789127870028388	-1.2427336531084112
-0.008189	5.071191144846416	-0.7119670851166158
-0.008187999999999999	5.026061020875532	-0.1406558487365583
-0.008187	4.668780872772696	0.460142419198599
-0.008185999999999999	3.984307325880946	0.9872231082460069
-0.008185	3.0553789408135716	1.4995602815158648
-0.008184	1.9158433105487358	1.893949328565324
-0.008183	0.6559606830282074	2.1482749757280595
-0.008182	-0.6490520684632053	2.2735948598372335
-0.008180999999999999	-1.905173852319493	2.247793707226521
-0.00818	-3.0409486389200886	2.0819291547290852
-0.008178999999999999	-3.9811595549801844	1.790744718122475
-0.008178	-4.639307196222251	1.3631827605735285
-0.008177	-5.01915240631053	0.8471597083592831
-0.008176	-5.056760842952934	0.27216259303483814
-0.008175	-4.748371662485222	-0.3102062801783818
-0.008173999999999999	-4.13911498887828	-0.8594022428921145
-0.008173	-3.2402733531248287	-1.3938546898282975
-0.008172	-2.142107003166637	-1.777186100044594
-0.008171	-0.9273544996169936	-2.094171689261916
-0.00817	0.39270162653138074	-2.2563503628149646
-0.008169	1.6601059413803898	-2.2784656364812896
-0.008168	2.8372500082876293	-2.116286962928241
-0.008166999999999999	3.833873579311331	-1.8582754368211185
-0.008166	4.567238093838205	-1.4491428739941095
-0.008165	4.980930896904647	-0.9478633375574138
-0.008164	5.089995363167619	-0.38392385906613113
-0.008163	4.845540524991994	0.20950265098025117
-0.008161999999999999	4.2926965063486575	0.7660703715827588
-0.008161	3.472832587544254	1.3078945764077166
-0.008159999999999999	2.4047529868999855	1.7391424129010504
-0.008159	1.1749571086933803	2.0634997600071476
-0.008158	-0.11125142447683053	2.247793707226521
-0.008157	-1.3824165829900799	2.2920242545591707
-0.008156	-2.5971690865397234	2.163018491505609
-0.008154999999999999	-3.616357719548867	1.941865754842361
-0.008154	-4.409895732703588	1.5327331920153522
-0.008152999999999999	-4.895044565390597	1.0646265660781438
-0.008152	-5.098130123259578	0.515430603364411
-0.008151	-4.932653002033001	-0.04482299618248413
-0.00815	-4.4286999510247895	-0.6235059904513166
-0.008149	-3.6389227815343093	-1.1579584373874996
-0.008147999999999999	-2.6310166795178866	-1.6371227001578703
-0.008147	-1.4576334562748874	-1.9835953209302923
-0.008146	-0.1413381737907536	-2.193690420760378
-0.008145	1.1561528903721785	-2.26372212070374
-0.008144	2.389709612243024	-2.193690420760378
-0.008143	3.4502675255588118	-1.965165926208355
-0.008142	4.288935662684417	-1.6150074264915455
-0.008140999999999999	4.849301368656234	-1.1579584373874996
-0.00814	5.086234519503378	-0.6124483536181542
-0.008139	4.995974271561609	-0.048508875126871596
-0.008138	4.559716406509724	0.5670329085858355
-0.008137	3.867721172289494	1.083055960800081
-0.008136	2.8485325392803507	1.5990790130143266
-0.008135	1.7052360653512744	1.9197504811760362
-0.008133999999999999	0.4453534378307461	2.1703902493943845
-0.008133	-0.8671810009891474	2.277280738781621
-0.008132	-2.115781097516954	2.2367360703933588
-0.008131	-3.236512509460588	2.0524421231739853
-0.00813	-4.116549926892838	1.705969502401563
-0.008128999999999999	-4.733328287828261	1.2857793027413917
-0.008128	-5.0379566246317316	0.7550127347495965
-0.008126999999999999	-5.034195780967491	0.17264386153637648
-0.008126	-4.650589727214972	-0.4097250116768435
-0.008125	-4.003724616965626	-0.9589209743905762
-0.008124	-3.071035388234012	-1.4675722687160468
-0.008123	-1.935260601633416	-1.8435319210435686
-0.008121999999999999	-0.6640954431201669	-2.1273445997614036
-0.008121	0.640917308371246	-2.274779757536902
-0.00812	1.8970390922275338	-2.2379209680930274
-0.008119	3.0440964098208503	-2.075742294539979
-0.008118	3.9805464822167056	-1.7808719789889818
-0.008117	4.6574983417799745	-1.3643676582731978
-0.008116	5.014778489882811	-0.8483446060589521
-0.008114999999999999	5.0561477701894555	-0.288091006512057
-0.008114	4.781606182699908	0.286906108812388
-0.008113	4.202436258406888	0.8655891030812205
-0.008112	3.2960729353249563	1.374240397406691
-0.008111	2.1979065853667645	1.7981164760112498
-0.00811	0.9568281761674382	2.1003585494510224
-0.008109	-0.3406628879954939	2.2514795861709085
-0.008107999999999999	-1.6268714211657047	2.262537223004071
-0.008107	-2.7852112697517426	2.137217338894897
-0.008106	-3.793117371768165	1.8681481759546117
-0.008105	-4.541525260952001	1.4663873710163777
-0.008104	-4.958978907682684	0.979851350357232
-0.008102999999999999	-5.064282530281415	0.40485423503278695
-0.008102	-4.846153597755472	-0.16645700134727057
-0.008100999999999999	-4.300831266440617	-0.7488258745604905
-0.0081	-3.465923972979252	-1.2759065636078986
-0.008099	-2.4241702779846657	-1.729269673767557
-0.008098	-1.2094177744350223	-2.046255262984879
-0.008097	0.09935582072063089	-2.2231774523154777
-0.008095999999999999	1.3855643538908418	-2.274779757536902
-0.008095	2.5815126391192833	-2.1678892681496658
-0.008094	3.6157446467853886	-1.9319930157088678
-0.008093	4.413043503604349	-1.5560333633813461
-0.008092	4.9094748672840804	-1.051067948000263
-0.008091	5.078712832174897	-0.5313590168416299
-0.00809	4.924518241941041	0.06575337214913991
-0.008088999999999999	4.461934471239474	0.6223210927516476
-0.008088	3.694722363734437	1.1752029344097676
-0.008087	2.683055418053774	1.658053076124526
-0.008086	1.4795854454968513	2.0045256968969483
-0.008085	0.18961606866240008	2.192505523060709
-0.008084	-1.119157526493253	2.2883383756147833
-0.008083	-2.3414317173713775	2.2183066756714216
-0.008081999999999999	-3.4132721616798865	1.989782181119398
-0.008081	-4.248179455141251	1.6506813182357511
-0.00808	-4.834871066762751	1.178888813354155
-0.008079	-5.060521686617174	0.6444363664179724
-0.008078	-4.977783126003885	0.06575337214913991
-0.008076999999999999	-4.556568635608962	-0.5129296221196925
-0.008076	-3.8645734013887325	-1.0473820690558755
-0.008074999999999999	-2.879232361357752	-1.5339180897150213
-0.008074	-1.7133708254432334	-1.9172494999313179
-0.008073	-0.4384448232657438	-2.1642033892052783
-0.008072	0.8590462408971882	-2.26372212070374
-0.008071	2.088842119103793	-2.2305492102042526
-0.008069999999999999	3.209573531047427	-2.0388835050961043
-0.008069	4.108415166800879	-1.7182120369343947
-0.008067999999999999	4.721432684072061	-1.279592442552286
-0.008067	5.041104395532494	-0.7561976324492654
-0.008066	5.0561477701894555	-0.17014288029165803
-0.008065	4.683824247429658	0.4011683560883995
-0.008064	4.048241668173032	0.9835372293016195
-0.008062999999999999	3.108030752112937	1.4479579762944403
-0.008062	2.0023427148262645	1.8534046601770617
-0.008061	0.7048516506633324	2.1482749757280595
-0.00806	-0.5964002571638398	2.2588513440596834
-0.008059	-1.8450003536916468	2.262537223004071
-0.008058	-2.995818514949204	2.1114161862841847
-0.008057	-3.928507743680819	1.8091741128444123
-0.008055999999999999	-4.62426382156529	1.3816121552954659
-0.008055	-5.011630718982049	0.8729608609699955
-0.008054	-5.052999999288693	0.31270726142310024
-0.008053	-4.763415037142184	-0.288091006512057
-0.008052	-4.165440894527963	-0.863088121836502
-0.008050999999999999	-3.3230119137381173	-1.3533100214400353
-0.00805	-2.2060413454587238	-1.7661284632114318
-0.008048999999999999	-0.9762454672521186	-2.083114052428754
-0.008048	0.336288971567775	-2.2489786049261897
-0.008047	1.6074541300810243	-2.2674079996481273
-0.008046	2.7996415716452256	-2.1420881155389533
-0.008045	3.784982611676206	-1.854589557876731
-0.008043999999999999	4.529629657195802	-1.445456995049722
-0.008043	4.962126678583446	-0.9884080059456759
-0.008041999999999999	5.10127789416034	-0.42446852745439334
-0.008041	4.894431492627119	0.17632974048076394
-0.00804	4.3415874739837825	0.7328974610832717
-0.008039	3.5029193368581772	1.2710357869638418
-0.008038	2.4799698601847933	1.713341260290338
-0.008036999999999999	1.231369763656986	2.048756244229598
-0.008036	-0.06236045684170557	2.221992554615809
-0.008035	-1.3260039280264742	2.2588513440596834
-0.008034	-2.5407564315761175	2.1777620072831594
-0.008033	-3.574988439242223	1.941865754842361
-0.008032	-4.394852358046626	1.5732778604036142
-0.008031	-4.8912837217263565	1.090427718688856
-0.008029999999999999	-5.071804217609895	0.5559752717526731
-0.008029	-4.932653002033001	-0.048508875126871596
-0.008028	-4.458786700338713	-0.6013907167849918
-0.008027	-3.714139654819117	-1.161644316331887
-0.008026	-2.6874293344814926	-1.6186933054359331
-0.008025	-1.514046111238493	-1.9835953209302923
-0.008024	-0.22031589073980162	-2.20474805759354
-0.008022999999999999	1.0959793917443323	-2.2674079996481273
-0.008022	2.3257752699509373	-2.186318662871603
-0.008021	3.405137401587927	-1.9835953209302923
-0.00802	4.255088069706254	-1.6518662159354203
-0.008019	4.822975463006552	-1.1874454689425993
-0.008017999999999999	5.082473675839138	-0.6493071430620289
-0.008017	5.00349595889009	-0.08536766457074628
-0.008015999999999999	4.567238093838205	0.5043729665312486
-0.008015	3.8790037032822156	1.0535689292449812
-0.008014	2.9350319435578793	1.5364190709597396
-0.008013	1.76164872031488	1.908692844342874
-0.008012	0.48672271813739026	2.181447886227547
-0.008010999999999999	-0.8107683460255417	2.277280738781621
-0.00801	-2.063129286217589	2.247793707226521
-0.008009	-3.1688173235042614	2.0524421231739853
-0.008008	-4.090224021243155	1.7354565339566628
-0.008007	-4.714524069507059	1.2894651816857792
-0.008006	-5.02667409363901	0.7734421294715338
-0.008005	-5.034195780967491	0.20213089309147622
-0.008003999999999999	-4.695719851185856	-0.3802379801217437
-0.008003	-4.03381136627955	-0.925748063891089
-0.008002	-3.1011221375479345	-1.4417711161053346
-0.008001	-2.0067166312539833	-1.8251025263216312
-0.008	-0.7505948473976956	-2.116286962928241
-0.007999	0.5807438097433999	-2.2489786049261897
-0.007998	1.8481481245924087	-2.2489786049261897
-0.007996999999999999	2.980162067528764	-2.0867999313731413
-0.007996	3.9278946709173406	-1.806673131599694
-0.007995	4.638694123458773	-1.382797052995135
-0.007994	5.037343551868253	-0.8741457586696644
-0.007993	5.067430301182176	-0.3212639170115442
-0.007991999999999999	4.815453775678071	0.27216259303483814
-0.007991	4.206197102071129	0.8287303136373458
-0.007989999999999999	3.3374422156316004	1.359496881629141
-0.007989	2.269362614987332	1.7796870812893124
-0.007988	1.024523362123765	2.08930091261786
-0.007987	-0.2692068583749266	2.2367360703933588
-0.007986	-1.5779804535305797	2.277280738781621
-0.007984999999999999	-2.732559458452377	2.1593326125612218
-0.007984	-3.7404655604687997	1.8755199338433866
-0.007982999999999999	-4.492634293316876	1.4958744025714774
-0.007982	-4.932653002033001	0.9835372293016195
-0.007981	-5.075565061274135	0.44539890342104915
-0.00798	-4.864957816076674	-0.1517134855697207
-0.007979	-4.361004765068463	-0.7193388430053907
-0.007977999999999999	-3.518575784278617	-1.2390477741640238
-0.007977	-2.4580178709628293	-1.6850391264349074
-0.007976	-1.2695912730628682	-2.0315117472073294
-0.007975	0.03542147842854438	-2.2194915733710903
-0.007974	1.3329125425914765	-2.289523273314452
-0.007973	2.5326216714841583	-2.1826327839272155
-0.007972	3.581897053807225	-1.9319930157088678
-0.007970999999999999	4.394239285283148	-1.570776879158896
-0.00797	4.9094748672840804	-1.0879267374441377
-0.007969	5.089995363167619	-0.5571601694523421
-0.007968	4.954604991254965	0.0215228248164903
-0.007967	4.4957820642176385	0.6002058190853228
-0.007965999999999999	3.721048269384119	1.1530876607434428
-0.007965	2.7206638546961774	1.6211942866806512
-0.007963999999999999	1.5284764131319764	1.9750386653418484
-0.007963	0.2422678799617654	2.199877280949484
-0.007962	-1.0627448715296473	2.2920242545591707
-0.007961	-2.2850190624077715	2.2330501914489713
-0.00796	-3.3455769757235596	2.0082115758413357
-0.007958999999999999	-4.2180927058273285	1.6654248340133009
-0.007958	-4.7935017864561065	1.20100408702048
-0.007956999999999999	-5.049239155624453	0.6812951558618471
-0.007956	-4.992826500660847	0.10629804053740206
-0.007955	-4.597937915915607	-0.4723849537314304
-0.007954	-3.879616776045694	-1.028952674333938
-0.007953	-2.9130799543359154	-1.5007451792155342
-0.007951999999999999	-1.7547401057498777	-1.8877624683762182
-0.007951	-0.4873357909008688	-2.149459873427728
-0.00795	0.8101552732620632	-2.274779757536902
-0.007949	2.05499452612563	-2.2563503628149646
-0.007948	3.1794867817335044	-2.0573128998180414
-0.007947	4.085850104815436	-1.7071544001012322
-0.007946	4.71015015307934	-1.2832783214966734
-0.007944999999999999	5.052386926525215	-0.7930564218931401
-0.007944	5.033582708204013	-0.2217451855130826
-0.007943	4.717671840407821	0.3790530824220747
-0.007942	4.0820892611511965	0.9651078345796822
-0.007941	3.160682563412302	1.444272097350053
-0.00794	2.0324294641401877	1.8570905391214494
-0.007939	0.7951118986051016	2.1187879441729596
-0.007937999999999999	-0.5324659148717534	2.255165465115296
-0.007937	-1.8111527607134834	2.262537223004071
-0.007936	-2.95444923464256	2.10404442839541
-0.007935	-3.8984209943668957	1.7981164760112498
-0.007934	-4.594177072251367	1.4074133079061781
-0.007932999999999999	-4.977783126003885	0.8987620135807077
-0.007932	-5.056760842952934	0.3274507772006502
-0.007930999999999999	-4.801023473784587	-0.25491809601256976
-0.00793	-4.188005956513405	-0.8262293323926273
-0.007929	-3.35309866305204	-1.3238229898849356
-0.007928	-2.2624540004223292	-1.758756705322657
-0.007927	-1.0326581222157243	-2.0646846577068163
-0.007925999999999999	0.2648329419472077	-2.2379209680930274
-0.007925	1.5623240061101398	-2.274779757536902
-0.007924	2.731946385688899	-2.1457739944833407
-0.007923	3.736091644041081	-1.8656471947098934
-0.007922	4.492021220553398	-1.4675722687160468
-0.007921	4.947083303926484	-0.9736644901681261
-0.00792	5.1050387378245805	-0.43552616428755575
-0.007918999999999999	4.9019531799555995	0.13947095103688928
-0.007918	4.386717597954667	0.7328974610832717
-0.007917	3.5593319918217827	1.2452346343531295
-0.007916	2.5213391404914374	1.6838542287352383
-0.007915	1.2953041059490726	2.0376986073964356
-0.007914	0.012856416443102084	2.2256784335601965
-0.007913	-1.2996780223767914	2.2735948598372335
-0.007911999999999999	-2.4805829329482716	2.1961914020050965
-0.007911	-3.537380002599819	1.956609270619911
-0.00791	-4.342200546747261	1.5880213761811641
-0.007909	-4.861196972412434	1.1236006291883431
-0.007908	-5.075565061274135	0.5633470296414481
-0.007906999999999999	-4.947696376689962	0.003093430094552957
-0.007906	-4.503916824309598	-0.5866472010074419
-0.007904999999999999	-3.7517480914615207	-1.1100420111104625
-0.007904	-2.7363203021166176	-1.6039497896583832
-0.007903	-1.5366111732239356	-1.9283071367644804
-0.007902	-0.2692068583749266	-2.186318662871603
-0.007901	1.024523362123765	-2.2600362417593525
-0.007899999999999999	2.269362614987332	-2.2194915733710903
-0.007899	3.356246433952802	-2.0167682314297792
-0.007898	4.206197102071129	-1.6850391264349074
-0.007897	4.796649557356869	-1.209560742608924
-0.007896	5.071191144846416	-0.6787941746171287
-0.007895	5.011017646218571	-0.08905354351513374
-0.007894	4.61612906147333	0.4896294507536988
-0.007892999999999999	3.916612139924619	1.042511292411819
-0.007892	2.9651186928718025	1.50693203940464
-0.007891	1.799257156957284	1.9234363601204236
-0.00789	0.5581787477579576	2.163018491505609
-0.007889	-0.754355691061936	2.2920242545591707
-0.007888	-2.0067166312539833	2.229364312504584
-0.007887	-3.1274480431976173	2.067185638951535
-0.007885999999999999	-4.03381136627955	1.761257686567375
-0.007885	-4.684437320193136	1.3336957290184288
-0.007884	-5.0379566246317316	0.813986797859796
-0.007883	-5.0379566246317316	0.22056028781341358
-0.007882	-4.718284913171299	-0.3470650696222565
-0.007880999999999999	-4.0714198029219535	-0.9073186691691516
-0.00788	-3.1575347925115405	-1.412284084550235
-0.007878999999999999	-2.0706509735460696	-1.806673131599694
-0.007878	-0.7957249713685801	-2.1052293260950785
-0.007877	0.5356136857725153	-2.2674079996481273
-0.007876	1.7879746259645628	-2.2600362417593525
-0.007875	2.93879278722212	-2.116286962928241
-0.007873999999999999	3.9128512962603788	-1.8177307684328563
-0.007873	4.597324843152128	-1.397540568772685
-0.007871999999999999	4.995974271561609	-0.8925751533916018
-0.007871	5.086234519503378	-0.33600743278909406
-0.00787	4.819214619342311	0.26110495620167573
-0.007869	4.258848913370494	0.8176726768041834
-0.007868	3.4013765579236868	1.3373816079628162
-0.007866999999999999	2.2956885206370146	1.7538859286786002
-0.007866	1.0771751734231305	2.0819291547290852
-0.007865	-0.21279420341132088	2.240421949337746
-0.007864	-1.4952418929172913	2.269908980892846
-0.007863	-2.691190178145733	2.1667043704499966
-0.007862	-3.6915745928336747	1.9050069653984865
-0.007861	-4.462547544002953	1.5143037972934148
-0.007859999999999999	-4.932653002033001	1.027767776634269
-0.007859	-5.068043373945654	0.46751417708737397
-0.007858	-4.8912837217263565	-0.09642530140390868
-0.007857	-4.368526452396943	-0.689851811450291
-0.007856	-3.574988439242223	-1.224304258386474
-0.007855	-2.525713056919156	-1.6629238527685828
-0.007854	-1.3109605533695126	-1.9835953209302923
-0.007852999999999999	-0.02475202019930174	-2.2194915733710903
-0.007852	1.2840215749563515	-2.2710938785925148
-0.007851	2.5025349221702355	-2.1973762997047652
-0.00785	3.52924524250786	-1.95779416831958
-0.007849	4.349109161312263	-1.5965780317696083
-0.007847999999999999	4.875627274305917	-1.1247855268880123
-0.007847	5.089995363167619	-0.5829613220630544
-0.007845999999999999	4.962126678583446	-0.0005924488498345111
-0.007845	4.507064595210359	0.5928340611965479
-0.007844	3.7511350186980423	1.1272865081327306
-0.007843	2.765793978667062	1.595393134069939
-0.007842	1.5961715990883032	1.9602951495642984
-0.007840999999999999	0.30244137858961156	2.199877280949484
-0.00784	-0.9875279982448397	2.284652496670396
-0.007839	-2.2173238764514447	2.229364312504584
-0.007838	-3.3380552883950787	2.0229550916188854
-0.007837	-4.195527643841886	1.6912259866240131
-0.007836	-4.770936724470665	1.241548755408742
-0.007835	-5.049239155624453	0.6997245505837845
-0.007833999999999999	-5.004109031653568	0.12472743525933941
-0.007833	-4.609220446908328	-0.4723849537314304
-0.007832	-3.920986056352338	-1.0178950375007758
-0.007831	-2.9732534529637618	-1.5007451792155342
-0.00783	-1.826196135370445	-1.8840765894318308
-0.007829	-0.5587918205214362	-2.1347163576501784
-0.007828	0.7462209309699768	-2.274779757536902
-0.007826999999999999	1.9948210274977838	-2.2489786049261897
-0.007826	3.1230741267698985	-2.0573128998180414
-0.007825	4.052002511837273	-1.7476990684894944
-0.007824	4.698867622086619	-1.3311947477737105
-0.007823	5.041104395532494	-0.7967423008375276
-0.007821999999999999	5.0636694575179355	-0.22543106445747005
-0.007821	4.740236902393263	0.34219429297820003
-0.007819999999999999	4.11593685412936	0.9208772872470325
-0.007819	3.205812687383187	1.4110991868505656
-0.007818	2.085081275439553	1.838661144399512
-0.007817	0.8289594915832652	2.115102065228572
-0.007816	-0.46100988525118614	2.277280738781621
-0.007814999999999999	-1.7171316691074738	2.2809666177260084
-0.007814	-2.898036579678954	2.122473823117347
-0.007813	-3.879616776045694	1.8460329022882869
-0.0078119999999999995	-4.571612010265924	1.4184709447393407
-0.007810999999999999	-4.981543969668126	0.92456316619142
-0.007809999999999999	-5.068043373945654	0.3606236877001373
-0.007809	-4.816066848441549	-0.21437342762430767
-0.007808	-4.255701142469732	-0.80779993767069
