# Angular measurement - Y = -22.00 
# time [s]	ch1 [V]	ch2 [V]
# 
-0.008192	3.6157446467853886	-2.4848748573669877
-0.008191	4.401760972611629	-2.241606847037415
-0.00819	4.913235710948321	-1.8361601631547937
-0.008189	5.082473675839138	-1.312765353051773
-0.008187999999999999	4.947083303926484	-0.7267106008941657
-0.008187	4.476977845896436	-0.04113711723809666
-0.008185999999999999	3.717287425719879	0.6149493348628727
-0.008185	2.705620480039216	1.2304911185755798
-0.008184	1.5171938821392552	1.7796870812893124
-0.008183	0.2460287236260058	2.207249038838259
-0.008182	-1.0552231842011666	2.476318201778544
-0.008180999999999999	-2.2850190624077715	2.609009843776493
-0.00818	-3.360620350380521	2.5500357806662937
-0.008178999999999999	-4.2331360804842895	2.317825407169883
-0.008178	-4.7935017864561065	1.9529233916755235
-0.008177	-5.060521686617174	1.4848167657383151
-0.008176	-4.9890656569966065	0.8729608609699955
-0.008175	-4.590416228587126	0.21318852992463863
-0.008173999999999999	-3.872095088717213	-0.4392120432319432
-0.008173	-2.9130799543359154	-1.0879267374441377
-0.008172	-1.7660226367425989	-1.6518662159354203
-0.008171	-0.4760532599081477	-2.0867999313731413
-0.00817	0.8251986479190248	-2.4111572784792386
-0.008169	2.085081275439553	-2.5622783151991246
-0.008168	3.2020518437189467	-2.5549065573103498
-0.008166999999999999	4.0896109484796765	-2.359554973257814
-0.008166	4.736476058729022	-2.0204541103741667
-0.008165	5.048626082860975	-1.5412898476037962
-0.008164	5.044865239196734	-0.9736644901681261
-0.008163	4.725193527736302	-0.3175780380671568
-0.008161999999999999	4.059524199165754	0.3385084140338126
-0.008161	3.1531608760838217	0.9761654714128446
-0.008159999999999999	2.0211469331474663	1.540104949904127
-0.008159	0.7725468366196593	2.0376986073964356
-0.008158	-0.528705071207513	2.373113591335695
-0.008157	-1.856282884684368	2.586894570110168
-0.008156	-2.9582100783068	2.590580449054556
-0.008154999999999999	-3.9172252126880975	2.4247158965571196
-0.008154	-4.620502977901049	2.1409032178392846
-0.008152999999999999	-4.9890656569966065	1.6875401076796257
-0.008152	-5.060521686617174	1.130972387077118
-0.008151	-4.7784584117991455	0.4712000560317614
-0.00815	-4.191766800177645	-0.19225815395798285
-0.008149	-3.326772757402358	-0.8188575745038524
-0.008147999999999999	-2.2737365314150506	-1.4159699634946223
-0.008147	-1.0326581222157243	-1.9209353788757055
-0.008146	0.2761154729399289	-2.282151515425677
-0.008145	1.5585631624458993	-2.5401630415328
-0.008144	2.7394680730173797	-2.5622783151991246
-0.008143	3.7511350186980423	-2.4517019468675008
-0.008142	4.488260376889158	-2.178946904982828
-0.008140999999999999	4.969648365911926	-1.7550708263782693
-0.00814	5.0975170504961	-1.2021889847201492
-0.008139	4.879388117970157	-0.5977048378406044
-0.008138	4.352870004976504	0.08049688792668978
-0.008137	3.548049460829062	0.7365833400276591
-0.008136	2.5213391404914374	1.3226380921852665
-0.008135	1.2953041059490726	1.8460329022882869
-0.008133999999999999	0.0090955727788617	2.255165465115296
-0.008133	-1.2883954913840703	2.498433475444869
-0.008132	-2.510669682262195	2.590580449054556
-0.008131	-3.5449016899282997	2.5168628701668063
-0.00813	-4.361004765068463	2.2809666177260084
-0.008128999999999999	-4.895044565390597	1.8718340548989991
-0.008128	-5.071804217609895	1.3558110026847536
-0.008126999999999999	-4.951457220354203	0.7734421294715338
-0.008126	-4.481351762324155	0.10998391948178952
-0.008125	-3.725422185811838	-0.5571601694523421
-0.008124	-2.732559458452377	-1.1985031057757618
-0.008123	-1.5441328605524163	-1.7403273106007195
-0.008121999999999999	-0.2466417963894843	-2.1605175102608905
-0.008121	1.0508492677734478	-2.440644310034338
-0.00812	2.2731234586515723	-2.558592436254737
-0.008119	3.390094026930966	-2.52541952575525
-0.008118	4.22500132039233	-2.3153244259251644
-0.008117	4.80793208834959	-1.9356788946532553
-0.008116	5.074951988510657	-1.4307134792721723
-0.008114999999999999	4.995974271561609	-0.8557163639477271
-0.008114	4.6086073741448494	-0.232802822346245
-0.008113	3.9278946709173406	0.46382829814298643
-0.008112	2.9425536308863602	1.1088571134107932
-0.008111	1.780452938636082	1.6469954392913637
-0.00811	0.5318528421082749	2.122473823117347
-0.008109	-0.803246658697061	2.4431452912790568
-0.008107999999999999	-2.0292816932394255	2.5832086911657806
-0.008107	-3.1387305741903386	2.5647792964438434
-0.008106	-4.052615584600751	2.3915429860576323
-0.008105	-4.699480694850097	2.078243275784698
-0.008104	-5.041717468295972	1.595393134069939
-0.008102999999999999	-5.01915240631053	1.0093383819123316
-0.008102	-4.718284913171299	0.3974824771440121
-0.008100999999999999	-4.063898115593473	-0.27334749073450715
-0.0081	-3.161295636175781	-0.9478633375574138
-0.008099	-2.0368033805679064	-1.5191745739374714
-0.008098	-0.7806815967116187	-1.9835953209302923
-0.008097	0.513048623787073	-2.3411255785358764
-0.008095999999999999	1.7842137823003223	-2.5364771625884126
-0.008095	2.93879278722212	-2.5549065573103498
-0.008094	3.9128512962603788	-2.4185290363680134
-0.008093	4.604846530480609	-2.0978575682063036
-0.008092	5.0072568025543305	-1.6518662159354203
-0.008091	5.082473675839138	-1.1026702532216874
-0.00809	4.819214619342311	-0.47607083267581785
-0.008088999999999999	4.240044695049292	0.1947591352027013
-0.008088	3.3600072776170427	0.8287303136373458
-0.008087	2.2806451459800527	1.4332144605168904
-0.008086	1.0696534860946496	1.9234363601204236
-0.008085	-0.2315984217325228	2.317825407169883
-0.008084	-1.5290894858954547	2.5352922648887435
-0.008083	-2.721276927459656	2.5942663279989433
-0.008081999999999999	-3.7479872477972807	2.4689464438897692
-0.008081	-4.451265013010232	2.2035631598938714
-0.00808	-4.91760962737604	1.7870588391780875
-0.008079	-5.071804217609895	1.2526063922419046
-0.008078	-4.872479503405155	0.6223210927516476
-0.008076999999999999	-4.364765608732704	-0.037451238293709194
-0.008076	-3.54866253359254	-0.6861659325059035
-0.008074999999999999	-2.525713056919156	-1.294335958329836
-0.008074	-1.3109605533695126	-1.806673131599694
-0.008073	-0.02475202019930174	-2.2305492102042526
-0.008072	1.2764998876278706	-2.4848748573669877
-0.008071	2.498774078505995	-2.573335952032287
-0.008069999999999999	3.5593319918217827	-2.488560736311375
-0.008069	4.367913379633465	-2.2489786049261897
-0.008067999999999999	4.898192336291359	-1.8582754368211185
-0.008067	5.089995363167619	-1.3385665056624856
-0.008066	4.973409209576166	-0.7488258745604905
-0.008065	4.525868813531561	-0.07799590668197134
-0.008064	3.7624175496907637	0.5633470296414481
-0.008062999999999999	2.780837353324024	1.20100408702048
-0.008062	1.573606537102861	1.7391424129010504
-0.008061	0.30244137858961156	2.1888196441163217
-0.00806	-1.0364189658799645	2.476318201778544
-0.008059	-2.247410625765368	2.590580449054556
-0.008058	-3.330533601066598	2.531606385944356
-0.008057	-4.188005956513405	2.3473124387249826
-0.008055999999999999	-4.7859800991276265	1.9860963021750107
-0.008055	-5.056760842952934	1.4958744025714774
-0.008054	-4.9890656569966065	0.8987620135807077
-0.008053	-4.612981290572568	0.2574190772572883
-0.008052	-3.9172252126880975	-0.40603913273245595
-0.008050999999999999	-2.9619709219710404	-1.0400103111671006
-0.00805	-1.7998702297207623	-1.6186933054359331
-0.008048999999999999	-0.5211833838790323	-2.075742294539979
-0.008048	0.7800685239481402	-2.3964137627016884
-0.008047	2.006103558490505	-2.573335952032287
-0.008046	3.1456391887553408	-2.5364771625884126
-0.008045	4.063285042829994	-2.352183215369039
-0.008043999999999999	4.717671840407821	-2.0388835050961043
-0.008043	5.037343551868253	-1.578148637047671
-0.008041999999999999	5.041104395532494	-0.9884080059456759
-0.008041	4.743997746057503	-0.350750948566644
-0.00804	4.104654323136638	0.31270726142310024
-0.008039	3.194530156390466	0.9540501977465198
-0.008038	2.0813204317753127	1.5364190709597396
-0.008036999999999999	0.8289594915832652	2.0376986073964356
-0.008036	-0.4722924162439073	2.373113591335695
-0.008035	-1.7585009494141182	2.561093417499456
-0.008034	-2.905558267007435	2.5942663279989433
-0.008033	-3.8683342450529725	2.4394594123346693
-0.008032	-4.575372853930165	2.137217338894897
-0.008031	-4.9890656569966065	1.6985977445127882
-0.008029999999999999	-5.075565061274135	1.1420300239102805
-0.008029	-4.812306004777309	0.5191164823087985
-0.008028	-4.248179455141251	-0.14434172768094577
-0.008027	-3.3756637250374824	-0.8188575745038524
-0.008026	-2.288779906072012	-1.3938546898282975
-0.008025	-1.0777882461866088	-1.909877742042543
-0.008024	0.21594197431208273	-2.304266789092002
-0.008022999999999999	1.505911351146534	-2.52541952575525
-0.008022	2.698098792710735	-2.5843935888654497
-0.008021	3.698483207398677	-2.4590737047562756
-0.00802	4.476977845896436	-2.1973762997047652
-0.008019	4.954604991254965	-1.7661284632114318
-0.008017999999999999	5.078712832174897	-1.2427336531084112
-0.008017	4.9094748672840804	-0.6382495062288664
-0.008015999999999999	4.401760972611629	0.0325804616496527
-0.008015	3.6082229594569077	0.6960386716393969
-0.008014	2.5627084207980815	1.3078945764077166
-0.008013	1.3366733862557167	1.8202317496775746
-0.008012	0.05046485308550591	2.2367360703933588
-0.008010999999999999	-1.2432653674131857	2.5021193543892566
-0.00801	-2.4580178709628293	2.601638085887718
-0.008009	-3.5035324096216556	2.5352922648887435
-0.008008	-4.33843970308302	2.2993960124479456
-0.008007	-4.853675285083953	1.9013210864540988
-0.008006	-5.079325904938376	1.3816121552954659
-0.008005	-4.943935533025722	0.7844997663046962
-0.008003999999999999	-4.500155980645357	0.10998391948178952
-0.008003	-3.7592697787900016	-0.5313590168416299
-0.008002	-2.7626462077663003	-1.1505866794987247
-0.008001	-1.6043063591802624	-1.7071544001012322
-0.008	-0.30681529501733046	-2.131030478705791
-0.007999	0.9643498634959189	-2.440644310034338
-0.007998	2.212949960023726	-2.5696500730878995
-0.007996999999999999	3.314877153646158	-2.5143618889220876
-0.007996	4.187392883749927	-2.304266789092002
-0.007995	4.81169293201383	-1.9541082893751927
-0.007994	5.067430301182176	-1.4749440266048217
-0.007993	5.018539333547051	-0.8778316376140519
-0.007991999999999999	4.638694123458773	-0.24754633812379487
-0.007991	3.9617422638955038	0.4306553876434992
-0.007989999999999999	2.9989662858499657	1.042511292411819
-0.007989	1.8481481245924087	1.6359378024582012
-0.007988	0.592026340736121	2.096672670506635
-0.007987	-0.7205080980837726	2.4173441386683447
-0.007986	-1.9803907256043005	2.5721510543326183
-0.007984999999999999	-3.093600450219454	2.5832086911657806
-0.007984	-4.015007147958348	2.4026006228907946
-0.007982999999999999	-4.676915632864655	2.07455739684031
-0.007982	-5.030434937303251	1.595393134069939
-0.007981	-5.034195780967491	1.0240818976898816
-0.00798	-4.733328287828261	0.4085401139771745
-0.007979	-4.082702333914675	-0.24754633812379487
-0.007977999999999999	-3.1989040728181846	-0.918376306002314
-0.007977	-2.112020253852714	-1.5007451792155342
-0.007976	-0.8446159390037051	-1.9762235630415175
-0.007975	0.4378317505022653	-2.3263820627583267
-0.007974	1.7315619710009569	-2.5364771625884126
-0.007973	2.904945194243956	-2.5770218309766744
-0.007972	3.867721172289494	-2.4369584310899506
-0.007970999999999999	4.589803155823648	-2.138402236594566
-0.00797	4.988452584233128	-1.69609676326807
-0.007969	5.093756206831859	-1.1210996479436248
-0.007968	4.849301368656234	-0.49818610634214266
-0.007967	4.277653131691696	0.18001561942515143
-0.007965999999999999	3.405137401587927	0.799243282082246
-0.007965	2.3370578009436587	1.4074133079061781
-0.007963999999999999	1.0997402354085728	1.9197504811760362
-0.007963	-0.16014239211195552	2.3104536492811083
-0.007962	-1.4613942999391278	2.5352922648887435
-0.007961	-2.676146803488771	2.601638085887718
-0.00796	-3.6765312181767134	2.4947475965004813
-0.007958999999999999	-4.43622163835327	2.2330501914489713
-0.007958	-4.92889215836876	1.8128599917887998
-0.007956999999999999	-5.068043373945654	1.2784075448526169
-0.007956	-4.902566252719078	0.6776092769174596
-0.007955	-4.383569827053905	0.0067793090389404245
-0.007954	-3.5900318138991842	-0.6640506588395787
-0.007953	-2.574604024554281	-1.2869642004410609
-0.007951999999999999	-1.374894895661599	-1.8103590105440814
-0.007951	-0.07364298783442672	-2.2121198154823154
-0.00795	1.2163263890000247	-2.492246615255763
-0.007949	2.4461222672066296	-2.595451225698612
-0.007948	3.4953976495296963	-2.4959324942001504
-0.007947	4.326544099326821	-2.2858373943700645
-0.007946	4.868105586977436	-1.8840765894318308
-0.007944999999999999	5.093756206831859	-1.3680535372175853
-0.007944	4.973409209576166	-0.7819987850599777
-0.007943	4.540912188188523	-0.1295982119033959
-0.007942	3.8113085173258887	0.5449176349195108
-0.007941	2.803402415309466	1.178888813354155
-0.00794	1.6488234103876687	1.7170271392347256
-0.007939	0.36261487721745767	2.163018491505609
-0.007937999999999999	-0.9461587179381954	2.4431452912790568
-0.007937	-2.1872371271375215	2.586894570110168
-0.007936	-3.292925164424194	2.5574075385550685
-0.007935	-4.161680050863723	2.3583700755581454
-0.007934	-4.770936724470665	1.9971539390081732
-0.007932999999999999	-5.060521686617174	1.50693203940464
-0.007932	-5.011630718982049	0.931934924080195
-0.007930999999999999	-4.646828883550732	0.28322022986800055
-0.00793	-3.9473119620020207	-0.3691803432885813
-0.007929	-3.007101045941925	-1.028952674333938
-0.007928	-1.87508710300557	-1.5965780317696083
-0.007927	-0.5888785698353591	-2.0573128998180414
-0.007925999999999999	0.701090806999092	-2.414843157423626
-0.007925	1.95721259085538	-2.5512206783659623
-0.007924	3.085465690127495	-2.5549065573103498
-0.007923	4.02191576252335	-2.4000996416460763
-0.007922	4.676302560101177	-2.0683705366512037
-0.007921	5.048626082860975	-1.592892152825221
-0.00792	5.071191144846416	-1.0178950375007758
-0.007918999999999999	4.751519433385984	-0.38392385906613113
-0.007918	4.127219385122081	0.27216259303483814
-0.007917	3.2396602803613503	0.931934924080195
-0.007916	2.1602981487243604	1.5179896762378022
-0.007915	0.8891329902111111	2.0045256968969483
-0.007914	-0.4196406049445419	2.343626559780595
-0.007913	-1.6832840761293104	2.5574075385550685
-0.007911999999999999	-2.841623924715348	2.590580449054556
-0.007911	-3.823204121082088	2.4431452912790568
-0.00791	-4.556568635608962	2.1667043704499966
-0.007909	-4.966500595011165	1.728084776067888
-0.007908	-5.068043373945654	1.178888813354155
-0.007906999999999999	-4.81982769210579	0.5449176349195108
-0.007906	-4.274505360790934	-0.11116881718145855
-0.007904999999999999	-3.4132721616798865	-0.7783129061155902
-0.007904	-2.3602359356925793	-1.3680535372175853
-0.007903	-1.1266792138217339	-1.8877624683762182
-0.007902	0.17457269400543854	-2.26372212070374
-0.007901	1.4382161651902072	-2.5033042520889253
-0.007899999999999999	2.6416861377471297	-2.580707709921062
-0.007899	3.6759181454132346	-2.470131341589438
-0.007898	4.469456158567955	-2.2084339365379275
-0.007897	4.943322460262244	-1.8103590105440814
-0.007896	5.093756206831859	-1.2611630478303486
-0.007895	4.932039929269522	-0.6493071430620289
-0.007894	4.41680434726859	0.017836945872102827
-0.007892999999999999	3.6420705524350714	0.6481222453623599
-0.007892	2.607838544768966	1.2894651816857792
-0.007891	1.396846884883563	1.8054882339000247
-0.00789	0.12568172637031355	2.229364312504584
-0.007889	-1.1943743997780607	2.498433475444869
-0.007888	-2.4091269033277043	2.5979522069433307
-0.007887	-3.458402285650771	2.5463499017219062
-0.007885999999999999	-4.289548735447895	2.3141395282254957
-0.007885	-4.864957816076674	1.9197504811760362
-0.007884	-5.068043373945654	1.4184709447393407
-0.007883	-4.962739751346924	0.806615039971021
-0.007882	-4.507677667973837	0.15421446681443915
-0.007880999999999999	-3.8081607464251266	-0.49818610634214266
-0.00788	-2.830341393722627	-1.1358431637211748
-0.007878999999999999	-1.6381539521584259	-1.688725005379295
-0.007878	-0.37074963730941696	-2.1347163576501784
-0.007877	0.9192197395250343	-2.422214915312401
-0.007876	2.1828632107098027	-2.565964194143512
-0.007875	3.273507873339514	-2.5291054046996373
-0.007873999999999999	4.1460236034432825	-2.3226961838139393
-0.007873	4.781606182699908	-1.97253768409713
-0.007871999999999999	5.067430301182176	-1.5044310581599216
-0.007871	5.033582708204013	-0.911004548113539
-0.00787	4.634933279794533	-0.26597573284573217
-0.007869	3.991829013209427	0.40485423503278695
-0.007868	3.0403355661566103	1.042511292411819
-0.007866999999999999	1.9158433105487358	1.5806496182923893
-0.007866	0.6559606830282074	2.0561280021183728
-0.007865	-0.6490520684632053	2.4136582597239573
-0.007864	-1.9277389143049353	2.5979522069433307
-0.007863	-3.037187795255848	2.579522812221393
-0.007862	-3.999963773301386	2.4320876544458945
-0.007861	-4.665633101871934	2.0929867915622475
-0.007859999999999999	-5.01915240631053	1.6396236814025886
-0.007859	-5.056760842952934	1.0719983239669186
-0.007858	-4.763415037142184	0.40485423503278695
-0.007857	-4.1203107705570785	-0.2217451855130826
-0.007856	-3.2590775714460305	-0.8852033955028268
-0.007855	-2.1345853158381565	-1.4896875423823717
-0.007854	-0.9198328122885129	-1.9541082893751927
-0.007852999999999999	0.4115058448525826	-2.319010304869552
-0.007852	1.6676276287088705	-2.52541952575525
-0.007851	2.8410108519518698	-2.573335952032287
-0.00785	3.8301127356470905	-2.440644310034338
-0.007849	4.563477250173965	-2.138402236594566
-0.007847999999999999	5.00349595889009	-1.6997826422124573
-0.007847	5.074951988510657	-1.176387832109437
-0.007845999999999999	4.834257993999272	-0.5424166536747923
-0.007845	4.2926965063486575	0.11735567737056446
-0.007844	3.480354274872735	0.7881856452490836
-0.007843	2.3972312995715046	1.3926697921286284
-0.007842	1.1749571086933803	1.9271222390648113
-0.007840999999999999	-0.14509901745499398	2.2662231019484587
-0.00784	-1.4049816449755221	2.5168628701668063
-0.007839	-2.6197341485251657	2.5979522069433307
-0.007838	-3.631401094205829	2.5205487491111938
-0.007837	-4.413656576367828	2.240421949337746
-0.007836	-4.910087940047559	1.8349752654551246
-0.007835	-5.079325904938376	1.3042086974633291
-0.007833999999999999	-4.91760962737604	0.7070963084725593
-0.007833	-4.413656576367828	0.0325804616496527
-0.007832	-3.6389227815343093	-0.6161342325625416
-0.007831	-2.600929930203964	-1.2464195320527989
-0.00783	-1.423785863296724	-1.7808719789889818
-0.007829	-0.13757733012651321	-2.186318662871603
-0.007828	1.1862396396861015	-2.4664454626450505
-0.007826999999999999	2.3821879249145432	-2.565964194143512
-0.007826	3.4502675255588118	-2.5033042520889253
-0.007825	4.296457350012898	-2.282151515425677
-0.007824	4.8530622123204745	-1.8877624683762182
-0.007823	5.086234519503378	-1.4049123266614598
-0.007821999999999999	4.992213427897369	-0.800428179781915
-0.007821	4.567238093838205	-0.15908524345849565
-0.007819999999999999	3.82635189198285	0.5006870875868611
-0.007819	2.8673367576015525	1.138344144965893
-0.007818	1.6977143780227935	1.6985977445127882
-0.007817	0.415266688516823	2.1409032178392846
-0.007816	-0.8784635319818686	2.435773533390282
-0.007814999999999999	-2.1195419411811947	2.5758369332770057
-0.007814	-3.2177082911393864	2.568465175388231
-0.007813	-4.116549926892838	2.3767994702800825
-0.0078119999999999995	-4.748371662485222	2.019269212674498
-0.007810999999999999	-5.052999999288693	1.547476707792902
-0.007809999999999999	-5.02667409363901	0.9577360766909072
-0.007809	-4.665633101871934	0.31270726142310024
-0.007808	-3.977398711315944	-0.3618085853998064
