# Angular measurement - Y = 400.00 
# time [s]	ch1 [V]	ch2 [V]
# 
-0.008192	4.048129155404281	0.021725239352566938
-0.008191	3.128634848221096	-0.004357976486931796
-0.00819	2.0230080901911114	-0.019262671252359642
-0.008189	0.7461394773820723	-0.082607624005428
-0.008187999999999999	-0.5530650295285827	-0.09751231877085584
-0.008187	-1.8150430462698781	-0.11986936091899761
-0.008185999999999999	-2.995122784638582	-0.10496466615356977
-0.008185	-3.9443982839572556	-0.14222640306713938
-0.008184	-4.633088352090411	-0.14967875044985332
-0.008183	-5.042579743953368	-0.12359553461035458
-0.008182	-5.102142128224344	-0.1124170135362837
-0.008180999999999999	-4.815498153920274	-0.09751231877085584
-0.00818	-4.238487556295198	-0.09005997138814192
-0.008178999999999999	-3.3748329843660514	-0.06397675554864318
-0.008178	-2.2840968224038107	-0.026715018635073567
-0.008177	-1.0481773487810673	-0.0006318027955748338
-0.008176	0.25102715812958776	0.0254514130439239
-0.008175	1.5390637179894349	0.04780845519206567
-0.008173999999999999	2.704252860290395	0.08134401841427832
-0.008173	3.727981339947788	0.08134401841427832
-0.008172	4.476233792351918	0.0850701921056353
-0.008171	4.941564919468915	0.06643932364885048
-0.00817	5.086748231129418	0.0552608025747796
-0.008169	4.896893131265683	0.04408228150070871
-0.008168	4.353386374793031	0.017999065661209977
-0.008166999999999999	3.538126240084053	0.003094370895782128
-0.008166	2.4846165682911723	-0.037893539709144455
-0.008165	1.2859235848377886	-0.060250581857286226
-0.008164	-0.024448869123674385	-0.07888145031407104
-0.008163	-1.3236533760343294	-0.10496466615356977
-0.008161999999999999	-2.537236955555457	-0.1310478819930685
-0.008161	-3.587023978331402	-0.13477405568442546
-0.008159999999999999	-4.4022841130403805	-0.1310478819930685
-0.008159	-4.927177624428353	-0.12359553461035458
-0.008158	-5.102142128224344	-0.1124170135362837
-0.008157	-4.971849412631585	-0.11986936091899761
-0.008156	-4.51396358354846	-0.09378614507949888
-0.008154999999999999	-3.758265833110457	-0.04907206078321534
-0.008154	-2.7308147044361277	-0.03416736601778749
-0.008152999999999999	-1.5693482111521038	-0.008084150178288757
-0.008152	-0.27386635325838465	0.0254514130439239
-0.008151	1.0178928556183984	0.05153462888342263
-0.00815	2.24636703120727	0.07389167103156441
-0.008149	3.3259352461187026	0.09252253948834921
-0.008147999999999999	4.2156483611664	0.06271314995749352
-0.008147	4.803826905842284	0.09252253948834921
-0.008146	5.053244389976994	0.08134401841427832
-0.008145	4.9862367076721466	0.058986976266136554
-0.008144	4.595358560893869	0.04408228150070871
-0.008143	3.895500545709907	0.021725239352566938
-0.008142	2.946225046391233	-0.004357976486931796
-0.008140999999999999	1.7922038511410812	-0.04907206078321534
-0.00814	0.5153352383320419	-0.09005997138814192
-0.008139	-0.802482513663293	-0.10123849246221281
-0.008138	-2.0570152323707163	-0.12732170830171155
-0.008137	-3.1775325864684447	-0.12359553461035458
-0.008136	-4.0970268936516305	-0.13850022937578244
-0.008135	-4.733599875547682	-0.11614318722764065
-0.008133999999999999	-5.079806234122728	-0.12359553461035458
-0.008133	-5.072360936088856	-0.10496466615356977
-0.008132	-4.755935769649298	-0.09005997138814192
-0.008131	-4.0970268936516305	-0.07888145031407104
-0.00813	-3.1812552354853807	-0.04161971340050141
-0.008128999999999999	-2.068183179421524	-0.019262671252359642
-0.008128	-0.8285410567818449	0.003094370895782128
-0.008126999999999999	0.4892766952134901	0.058986976266136554
-0.008126	1.7512547119547854	0.06643932364885048
-0.008125	2.9238891522896173	0.07389167103156441
-0.008124	3.895500545709907	0.07016549734020744
-0.008123	4.591635911876933	0.07389167103156441
-0.008121999999999999	5.0011273037398905	0.07761784472292137
-0.008121	5.079302933095546	0.07016549734020744
-0.00812	4.811272203876156	0.0552608025747796
-0.008119	4.230538957234144	-0.004357976486931796
-0.008118	3.3706070343219343	-0.0006318027955748338
-0.008117	2.2649802762919498	-0.030441192326430527
-0.008116	1.0402287497200142	-0.04907206078321534
-0.008114999999999999	-0.22919456505515298	-0.09751231877085584
-0.008114	-1.539567019016616	-0.11614318722764065
-0.008113	-2.7419826514869357	-0.12732170830171155
-0.008112	-3.747097886059649	-0.14222640306713938
-0.008111	-4.521408881582332	-0.14222640306713938
-0.00811	-4.979294710665457	-0.13477405568442546
-0.008109	-5.109587426258216	-0.1124170135362837
-0.008107999999999999	-4.923454975411417	-0.09378614507949888
-0.008107	-4.413452060091188	-0.08633379769678495
-0.008106	-3.59819192538221	-0.045345887091858376
-0.008105	-2.567018147690945	-0.04907206078321534
-0.008104	-1.3571572171867532	-0.019262671252359642
-0.008102999999999999	-0.043062114208354256	0.036629934117994783
-0.008102	1.2524197436853648	0.06643932364885048
-0.008100999999999999	2.4846165682911723	0.08134401841427832
-0.0081	3.5083450479485654	0.07389167103156441
-0.008099	4.338495778725287	0.08134401841427832
-0.008098	4.870834588147131	0.08879636579699225
-0.008097	5.071857635061674	0.08134401841427832
-0.008095999999999999	4.971346111604403	0.05153462888342263
-0.008095	4.476233792351918	0.04035610780935175
-0.008094	3.7540398830663397	0.003094370895782128
-0.008093	2.7414793504597545	-0.008084150178288757
-0.008092	1.5576769630741147	-0.05652440816592926
-0.008091	0.2659177541973316	-0.09378614507949888
-0.00809	-1.0407320507471953	-0.10123849246221281
-0.008088999999999999	-2.265483577319131	-0.1310478819930685
-0.008088	-3.3897235804337953	-0.12359553461035458
-0.008087	-4.2459328543290695	-0.13477405568442546
-0.008086	-4.834111399004954	-0.1310478819930685
-0.008085	-5.098419479207408	-0.12732170830171155
-0.008084	-5.038857094936432	-0.10496466615356977
-0.008083	-4.655424246192027	-0.082607624005428
-0.008081999999999999	-3.9630115290419354	-0.05652440816592926
-0.008081	-3.0211813277571338	-0.030441192326430527
-0.00808	-1.8634374834900458	-0.008084150178288757
-0.008079	-0.5716782746132626	0.017999065661209977
-0.008078	0.7163582852465845	0.04408228150070871
-0.008076999999999999	1.9820589510048159	0.07016549734020744
-0.008076	3.117466901170288	0.06643932364885048
-0.008074999999999999	4.014625314251857	0.0850701921056353
-0.008074	4.684702137300333	0.09624871317970618
-0.008073	5.027185846858442	0.07389167103156441
-0.008072	5.034631144892314	0.06643932364885048
-0.008071	4.71448332943582	0.036629934117994783
-0.008069999999999999	4.085355645573641	0.021725239352566938
-0.008069	3.1770292854412636	0.010546718278496053
-0.008067999999999999	2.056511931343535	-0.04907206078321534
-0.008067	0.8057018616530479	-0.06770292924000015
-0.008066	-0.515838539359223	-0.09751231877085584
-0.008065	-1.7815392051174543	-0.11986936091899761
-0.008064	-2.9392830493845423	-0.12732170830171155
-0.008062999999999999	-3.90344914477096	-0.13477405568442546
-0.008062	-4.621920405039603	-0.14222640306713938
-0.008061	-5.027689147885624	-0.12732170830171155
-0.00806	-5.102142128224344	-0.12359553461035458
-0.008059	-4.852724644089633	-0.09751231877085584
-0.008058	-4.271991397447621	-0.07888145031407104
-0.008057	-3.423227421586219	-0.06397675554864318
-0.008055999999999999	-2.3362139086409144	-0.01181032386964572
-0.008055	-1.1375209251875307	0.036629934117994783
-0.008054	0.19146477385861213	0.04035610780935175
-0.008053	1.4943919297862032	0.04035610780935175
-0.008052	2.674471668154907	0.06271314995749352
-0.008050999999999999	3.683309551744556	0.0850701921056353
-0.00805	4.450175249233366	0.0850701921056353
-0.008048999999999999	4.915506376350363	0.09252253948834921
-0.008048	5.086748231129418	0.06271314995749352
-0.008047	4.885725184214875	0.04035610780935175
-0.008046	4.368276970860775	0.029177586735280862
-0.008045	3.564184783202605	-0.008084150178288757
-0.008043999999999999	2.540456303545212	-0.015536497561002682
-0.008043	1.356653916159572	-0.04907206078321534
-0.008041999999999999	0.050004111215045104	-0.09378614507949888
-0.008041	-1.245477746678674	-0.10123849246221281
-0.00804	-2.4813972203014174	-0.13850022937578244
-0.008039	-3.5386295411112343	-0.1310478819930685
-0.008038	-4.368780271887957	-0.13850022937578244
-0.008036999999999999	-4.886228485242057	-0.14222640306713938
-0.008036	-5.102142128224344	-0.13477405568442546
-0.008035	-4.983017359682393	-0.10869083984492672
-0.008034	-4.5511900737178195	-0.10123849246221281
-0.008033	-3.8141055683644964	-0.07515527662271407
-0.008032	-2.816435631825655	-0.045345887091858376
-0.008031	-1.6289105954230794	0.010546718278496053
-0.008029999999999999	-0.3520419826140401	0.04780845519206567
-0.008029	0.9657757693812948	0.058986976266136554
-0.008028	2.1830819979193583	0.0850701921056353
-0.008027	3.292431404966279	0.07761784472292137
-0.008026	4.19703511608172	0.09252253948834921
-0.008025	4.777768362723732	0.07761784472292137
-0.008024	5.05696703899393	0.08134401841427832
-0.008022999999999999	5.004849952756826	0.07761784472292137
-0.008022	4.628862402046293	0.04408228150070871
-0.008021	3.9438949829300745	0.0254514130439239
-0.00802	2.976006238526721	-0.022988844943716606
-0.008019	1.8331529903273769	-0.0527982344745723
-0.008017999999999999	0.5823429206368894	-0.07142910293135711
-0.008017	-0.7280295333245735	-0.09378614507949888
-0.008015999999999999	-1.993730199082805	-0.09005997138814192
-0.008015	-3.121692851214405	-0.14222640306713938
-0.008014	-4.052355105448399	-0.14967875044985332
-0.008013	-4.714986630463002	-0.1310478819930685
-0.008012	-5.06863828707192	-0.1608572715239242
-0.008010999999999999	-5.090974181173536	-0.11614318722764065
-0.00801	-4.76338106768317	-0.10869083984492672
-0.008009	-4.13425338382099	-0.08633379769678495
-0.008008	-3.2408176197563563	-0.0527982344745723
-0.008007	-2.1351908617263717	-0.008084150178288757
-0.008006	-0.8769354940020125	-0.0006318027955748338
-0.008005	0.4334369599594505	0.029177586735280862
-0.008003999999999999	1.7028602747346178	0.058986976266136554
-0.008003	2.8866626621202576	0.07389167103156441
-0.008002	3.839660810455867	0.09252253948834921
-0.008001	4.5544094217075735	0.0850701921056353
-0.008	4.9862367076721466	0.07761784472292137
-0.007999	5.064412337027802	0.058986976266136554
-0.007998	4.80754955485922	0.04035610780935175
-0.007996999999999999	4.2528748513357595	0.036629934117994783
-0.007996	3.39294292842355	0.00682054458713909
-0.007995	2.3431559056476052	-0.03416736601778749
-0.007994	1.1109590810417977	-0.06770292924000015
-0.007993	-0.20685867095353713	-0.09005997138814192
-0.007991999999999999	-1.4874499327795123	-0.11614318722764065
-0.007991	-2.68242026721596	-0.1310478819930685
-0.007989999999999999	-3.702426097856417	-0.13850022937578244
-0.007989	-4.4767370933791	-0.13850022937578244
-0.007988	-4.960681465580777	-0.14222640306713938
-0.007987	-5.12447802232596	-0.11614318722764065
-0.007986	-4.934622922462225	-0.09378614507949888
-0.007984999999999999	-4.428342656158932	-0.09005997138814192
-0.007984	-3.6391410645685056	-0.0527982344745723
-0.007982999999999999	-2.6042446378603046	-0.04161971340050141
-0.007982	-1.394383707356113	0.00682054458713909
-0.007981	-0.0951792004454579	0.017999065661209977
-0.00798	1.2040253064651971	0.0552608025747796
-0.007979	2.4176088859863247	0.07016549734020744
-0.007977999999999999	3.4711185577792056	0.08879636579699225
-0.007977	4.278933394454311	0.07761784472292137
-0.007976	4.8522213430624515	0.07389167103156441
-0.007975	5.071857635061674	0.07016549734020744
-0.007974	4.967623462587467	0.05153462888342263
-0.007973	4.513460282521278	0.021725239352566938
-0.007972	3.7838210752018275	0.0254514130439239
-0.007970999999999999	2.797319085713794	-0.01181032386964572
-0.00797	1.6321299434128342	-0.045345887091858376
-0.007969	0.3254801384683072	-0.07142910293135711
-0.007968	-0.958833772374604	-0.10869083984492672
-0.007967	-2.2059211930481553	-0.12359553461035458
-0.007965999999999999	-3.3189932491120118	-0.12359553461035458
-0.007965	-4.193815768091966	-0.13477405568442546
-0.007963999999999999	-4.804330206869466	-0.15713109783256723
-0.007963	-5.0872515321566	-0.12732170830171155
-0.007962	-5.061192989038048	-0.12732170830171155
-0.007961	-4.666592193242835	-0.09751231877085584
-0.00796	-4.000238019211295	-0.060250581857286226
-0.007958999999999999	-3.0546851689095575	-0.0527982344745723
-0.007958	-1.9155545697271494	-0.015536497561002682
-0.007956999999999999	-0.6461312549519821	0.014272891969853013
-0.007956	0.6791317950772248	0.029177586735280862
-0.007955	1.9076059706660964	0.058986976266136554
-0.007954	3.0690724639501203	0.06643932364885048
-0.007953	3.98484412211637	0.07389167103156441
-0.007951999999999999	4.654920945164845	0.09624871317970618
-0.007951	5.012295250790698	0.06271314995749352
-0.00795	5.049521740960058	0.058986976266136554
-0.007949	4.736819223537436	0.04035610780935175
-0.007948	4.118859486726064	0.021725239352566938
-0.007947	3.2291463716783673	0.003094370895782128
-0.007946	2.112351666597575	-0.015536497561002682
-0.007944999999999999	0.8727095439578955	-0.04161971340050141
-0.007944	-0.4562761550882474	-0.10496466615356977
-0.007943	-1.7145315228126068	-0.10869083984492672
-0.007942	-2.8834433141305027	-0.12359553461035458
-0.007941	-3.862500005584664	-0.14222640306713938
-0.00794	-4.573525967819435	-0.1310478819930685
-0.007939	-5.009075902800944	-0.13850022937578244
-0.007937999999999999	-5.094696830190472	-0.11986936091899761
-0.007937	-4.860169942123505	-0.09378614507949888
-0.007936	-4.301772589583109	-0.08633379769678495
-0.007935	-3.460453911755579	-0.04907206078321534
-0.007934	-2.39577629291189	-0.026715018635073567
-0.007932999999999999	-1.1673021173230185	0.00682054458713909
-0.007932	0.12817974057070056	0.032903760426637826
-0.007930999999999999	1.4273842474813556	0.058986976266136554
-0.00793	2.6372451779855473	0.07016549734020744
-0.007929	3.6386377635413245	0.09252253948834921
-0.007928	4.42783935513175	0.0850701921056353
-0.007927	4.889447833231811	0.07761784472292137
-0.007925999999999999	5.068134986044738	0.07016549734020744
-0.007925	4.915506376350363	0.04780845519206567
-0.007924	4.412948759064006	0.032903760426637826
-0.007923	3.6051339223889007	0.00682054458713909
-0.007922	2.5962960387992515	-0.026715018635073567
-0.007921	1.3938804063289318	-0.06397675554864318
-0.00792	0.0946758994182768	-0.07888145031407104
-0.007918999999999999	-1.2156965545431861	-0.11986936091899761
-0.007918	-2.4330027830812497	-0.1124170135362837
-0.007917	-3.4865124548741306	-0.13477405568442546
-0.007916	-4.324108483684725	-0.1310478819930685
-0.007915	-4.882505836225121	-0.14595257675849635
-0.007914	-5.131923320359832	-0.10869083984492672
-0.007913	-5.01279855181788	-0.10869083984492672
-0.007911999999999999	-4.573525967819435	-0.09378614507949888
-0.007911	-3.851332058533856	-0.07515527662271407
-0.00791	-2.853662121995015	-0.030441192326430527
-0.007909	-1.677305032643247	-0.01181032386964572
-0.007908	-0.40788171786807975	0.021725239352566938
-0.007906999999999999	0.9173813321611272	0.04408228150070871
-0.007906	2.1458555077499986	0.07761784472292137
-0.007904999999999999	3.244036967746111	0.07761784472292137
-0.007904	4.152363327878488	0.1037010605624201
-0.007903	4.747987170588244	0.08134401841427832
-0.007902	5.049521740960058	0.08134401841427832
-0.007901	5.012295250790698	0.04408228150070871
-0.007899999999999999	4.654920945164845	0.032903760426637826
-0.007899	3.9736761750655623	0.029177586735280862
-0.007898	3.0467365698485045	0.00682054458713909
-0.007897	1.9150512686999683	-0.04161971340050141
-0.007896	0.6270147088401211	-0.07142910293135711
-0.007895	-0.664744500036662	-0.09751231877085584
-0.007894	-1.9453357618626372	-0.10123849246221281
-0.007892999999999999	-3.0732984139942374	-0.11986936091899761
-0.007892	-4.000238019211295	-0.13477405568442546
-0.007891	-4.6889280873444505	-0.12359553461035458
-0.00789	-5.064915638054984	-0.1310478819930685
-0.007889	-5.0872515321566	-0.12359553461035458
-0.007888	-4.785716961784786	-0.10123849246221281
-0.007887	-4.164034575956478	-0.07515527662271407
-0.007885999999999999	-3.281766758942652	-0.04907206078321534
-0.007885	-2.1835852989465394	0.00682054458713909
-0.007884	-0.9216072822052442	0.010546718278496053
-0.007883	0.3813198737223468	0.04780845519206567
-0.007882	1.658188486531386	0.0552608025747796
-0.007880999999999999	2.812209681781538	0.06643932364885048
-0.00788	3.8098796183203794	0.09624871317970618
-0.007878999999999999	4.524628229572086	0.09252253948834921
-0.007878	4.967623462587467	0.08879636579699225
-0.007877	5.064412337027802	0.06643932364885048
-0.007876	4.833608097977772	0.04408228150070871
-0.007875	4.282656043471247	0.029177586735280862
-0.007873999999999999	3.4599506107283977	-0.004357976486931796
-0.007873	2.380382395816965	-0.03416736601778749
-0.007871999999999999	1.1593535182619654	-0.07515527662271407
-0.007871	-0.13985098864868958	-0.082607624005428
-0.00787	-1.4204422504746648	-0.09751231877085584
-0.007869	-2.6228578829449845	-0.10869083984492672
-0.007868	-3.6651996076870574	-0.13477405568442546
-0.007866999999999999	-4.43951060320974	-0.13477405568442546
-0.007866	-4.956958816563841	-0.10496466615356977
-0.007865	-5.10586477724128	-0.12359553461035458
-0.007864	-4.956958816563841	-0.1124170135362837
-0.007863	-4.4767370933791	-0.08633379769678495
-0.007862	-3.6912581508056093	-0.0527982344745723
-0.007861	-2.671252320165152	-0.045345887091858376
-0.007859999999999999	-1.4576687406440245	-0.004357976486931796
-0.007859	-0.1659095317672414	0.017999065661209977
-0.007858	1.1146817300587337	0.0552608025747796
-0.007857	2.350601203681477	0.06643932364885048
-0.007856	3.433892067609846	0.07761784472292137
-0.007855	4.264042798386567	0.07016549734020744
-0.007854	4.8373307469947076	0.07761784472292137
-0.007852999999999999	5.086748231129418	0.08134401841427832
-0.007852	4.967623462587467	0.058986976266136554
-0.007851	4.5469641236737015	0.04780845519206567
-0.00785	3.8210475653711873	-0.0006318027955748338
-0.007849	2.849436171950898	-0.015536497561002682
-0.007847999999999999	1.67307908259913	-0.037893539709144455
-0.007847	0.39248782077315475	-0.07515527662271407
-0.007845999999999999	-0.9178846331883083	-0.10496466615356977
-0.007845	-2.1463588087771797	-0.12359553461035458
-0.007844	-3.2557082158241	-0.13477405568442546
-0.007843	-4.164034575956478	-0.14222640306713938
-0.007842	-4.793162259818658	-0.14595257675849635
-0.007840999999999999	-5.083528883139664	-0.14222640306713938
-0.00784	-5.053747691004176	-0.10869083984492672
-0.007839	-4.6889280873444505	-0.1124170135362837
-0.007838	-4.026296562329847	-0.060250581857286226
-0.007837	-3.103079606129725	-0.045345887091858376
-0.007836	-1.967671655964253	0.00682054458713909
-0.007835	-0.7168615862737656	0.017999065661209977
-0.007833999999999999	0.5935108676876973	0.04780845519206567
-0.007833	1.8741021295136726	0.07016549734020744
-0.007832	3.0132327286960807	0.07761784472292137
-0.007831	3.9587855789978184	0.0850701921056353
-0.00783	4.625139753029357	0.09624871317970618
-0.007829	5.01974054882457	0.07016549734020744
-0.007828	5.045799091943122	0.05153462888342263
-0.007826999999999999	4.759155117639052	0.04408228150070871
-0.007826	4.152363327878488	0.003094370895782128
-0.007825	3.270095510864663	-0.0006318027955748338
-0.007824	2.1756366998854864	-0.045345887091858376
-0.007823	0.9211039811780631	-0.082607624005428
-0.007821999999999999	-0.374377876715656	-0.07888145031407104
-0.007821	-1.6586917875585672	-0.1124170135362837
-0.007819999999999999	-2.838771525927271	-0.11986936091899761
-0.007819	-3.8289961644322403	-0.1310478819930685
-0.007818	-4.5549127227347554	-0.13477405568442546
-0.007817	-5.009075902800944	-0.13477405568442546
