# Angular measurement - Y = 320.00 
# time [s]	ch1 [V]	ch2 [V]
# 
-0.008192	5.086748231129418	-0.01181032386964572
-0.008191	4.8410533960116435	0.021725239352566938
-0.00819	4.278933394454311	0.036629934117994783
-0.008189	3.4599506107283977	0.04408228150070871
-0.008187999999999999	2.398995640901645	0.06271314995749352
-0.008187	1.1779667633466453	0.07389167103156441
-0.008185999999999999	-0.13240569061481763	0.06643932364885048
-0.008185	-1.4204422504746648	0.06643932364885048
-0.008184	-2.6116899358941765	0.04780845519206567
-0.008183	-3.6614769586701215	0.0254514130439239
-0.008182	-4.446955901243612	-0.0006318027955748338
-0.008180999999999999	-4.949513518529969	-0.030441192326430527
-0.00818	-5.109587426258216	-0.04907206078321534
-0.008178999999999999	-4.934622922462225	-0.09005997138814192
-0.008178	-4.454401199277484	-0.10496466615356977
-0.008177	-3.6912581508056093	-0.12732170830171155
-0.008176	-2.674974969182088	-0.13477405568442546
-0.008175	-1.4800046347456404	-0.15713109783256723
-0.008173999999999999	-0.18824542586885726	-0.1608572715239242
-0.008173	1.1184043790756697	-0.13477405568442546
-0.008172	2.3357106076137333	-0.1124170135362837
-0.008171	3.43016941859291	-0.09005997138814192
-0.00817	4.2454295533018875	-0.082607624005428
-0.008169	4.822440150926964	-0.0527982344745723
-0.008168	5.049521740960058	-0.015536497561002682
-0.008166999999999999	4.975068760621339	-0.008084150178288757
-0.008166	4.569300017775317	0.032903760426637826
-0.008165	3.832215512421995	0.036629934117994783
-0.008164	2.845713522933962	0.06643932364885048
-0.008163	1.676801731616066	0.07016549734020744
-0.008161999999999999	0.4148237148747706	0.07016549734020744
-0.008161	-0.9067166861375003	0.06271314995749352
-0.008159999999999999	-2.112854967624756	0.0552608025747796
-0.008159	-3.263153513857972	0.036629934117994783
-0.008158	-4.160311926939542	0.003094370895782128
-0.008157	-4.767103716700106	-0.022988844943716606
-0.008156	-5.083528883139664	-0.045345887091858376
-0.008154999999999999	-5.064915638054984	-0.07515527662271407
-0.008154	-4.7038186834121944	-0.07888145031407104
-0.008152999999999999	-4.044909807414527	-0.10869083984492672
-0.008152	-3.0807437120281094	-0.14222640306713938
-0.008151	-1.978839603015061	-0.11614318722764065
-0.00815	-0.7168615862737656	-0.14595257675849635
-0.008149	0.5897882186707614	-0.14967875044985332
-0.008147999999999999	1.8741021295136726	-0.1310478819930685
-0.008147	2.998342132628337	-0.10496466615356977
-0.008146	3.9550629299808824	-0.08633379769678495
-0.008145	4.625139753029357	-0.04907206078321534
-0.008144	5.0011273037398905	-0.037893539709144455
-0.008143	5.053244389976994	0.003094370895782128
-0.008142	4.766600415672924	0.036629934117994783
-0.008140999999999999	4.156085976895424	0.036629934117994783
-0.00814	3.270095510864663	0.0552608025747796
-0.008139	2.1830819979193583	0.08879636579699225
-0.008138	0.935994577245807	0.08134401841427832
-0.008137	-0.366932578681784	0.07761784472292137
-0.008136	-1.6400785424738873	0.058986976266136554
-0.008135	-2.820158280842591	0.032903760426637826
-0.008133999999999999	-3.8178282173814324	0.0254514130439239
-0.008133	-4.536299477650076	0.017999065661209977
-0.008132	-5.005353253784008	-0.04161971340050141
-0.008131	-5.102142128224344	-0.060250581857286226
-0.00813	-4.886228485242057	-0.08633379769678495
-0.008128999999999999	-4.357612324837149	-0.10869083984492672
-0.008128	-3.5349068920942983	-0.1310478819930685
-0.008126999999999999	-2.4627839752167375	-0.13850022937578244
-0.008126	-1.2566456937294819	-0.1310478819930685
-0.008125	0.057449409248917054	-0.14595257675849635
-0.008124	1.356653916159572	-0.12732170830171155
-0.008123	2.544178952562148	-0.1124170135362837
-0.008121999999999999	3.567907432219541	-0.09378614507949888
-0.008121	4.390612864962391	-0.05652440816592926
-0.00812	4.885725184214875	-0.022988844943716606
-0.008119	5.071857635061674	-0.030441192326430527
-0.008118	4.919229025367299	0.017999065661209977
-0.008117	4.424116706114814	0.0254514130439239
-0.008116	3.6721416046937483	0.0552608025747796
-0.008114999999999999	2.655858423070227	0.07389167103156441
-0.008114	1.4683333866676513	0.0850701921056353
-0.008113	0.17657417779086823	0.07389167103156441
-0.008112	-1.1412435742044666	0.07761784472292137
-0.008111	-2.3585498027425302	0.06271314995749352
-0.00811	-3.438118017653963	0.04035610780935175
-0.008109	-4.286881993515365	0.014272891969853013
-0.008107999999999999	-4.8490019950726975	-0.015536497561002682
-0.008107	-5.10586477724128	-0.030441192326430527
-0.008106	-4.9941853067332005	-0.05652440816592926
-0.008105	-4.607029808971859	-0.09378614507949888
-0.008104	-3.896003846737088	-0.11986936091899761
-0.008102999999999999	-2.9281151023337344	-0.12359553461035458
-0.008102	-1.7666486090497104	-0.14222640306713938
-0.008100999999999999	-0.4786120491898633	-0.13850022937578244
-0.0081	0.8280377557546638	-0.14595257675849635
-0.008099	2.060234580360471	-0.11614318722764065
-0.008098	3.2030878285598154	-0.10123849246221281
-0.008097	4.089078294590577	-0.082607624005428
-0.008095999999999999	4.71448332943582	-0.0527982344745723
-0.008095	5.045799091943122	-0.01181032386964572
-0.008094	5.016017899807634	-0.004357976486931796
-0.008093	4.666088892215653	0.029177586735280862
-0.008092	4.010902665234921	0.0552608025747796
-0.008091	3.0839630600178642	0.06643932364885048
-0.00809	1.9857816000217519	0.07389167103156441
-0.008088999999999999	0.7014676891788406	0.06271314995749352
-0.008088	-0.6051821157656864	0.07016549734020744
-0.008087	-1.8894960266085976	0.06271314995749352
-0.008086	-3.0211813277571338	0.04035610780935175
-0.008085	-3.9779021251096793	0.017999065661209977
-0.008084	-4.681482789310579	-0.004357976486931796
-0.008083	-5.046302392970304	-0.04907206078321534
-0.008081999999999999	-5.0872515321566	-0.07142910293135711
-0.008081	-4.826666100971082	-0.09005997138814192
-0.00808	-4.231042258261326	-0.10496466615356977
-0.008079	-3.3413291432136276	-0.12359553461035458
-0.008078	-2.254315630268323	-0.13477405568442546
-0.008076999999999999	-1.0183961566455795	-0.1310478819930685
-0.008076	0.3068668933836273	-0.13477405568442546
-0.008074999999999999	1.5725675591418586	-0.12359553461035458
-0.008074	2.7600925955444344	-0.11614318722764065
-0.008073	3.7503172340494038	-0.060250581857286226
-0.008072	4.513460282521278	-0.07142910293135711
-0.008071	4.967623462587467	-0.0527982344745723
-0.008069999999999999	5.071857635061674	0.003094370895782128
-0.008069	4.867111939130195	0.0254514130439239
-0.008067999999999999	4.345941076759159	0.04408228150070871
-0.008067	3.4860091538469495	0.05153462888342263
-0.008066	2.4548353761556845	0.07016549734020744
-0.008065	1.237529147617621	0.06271314995749352
-0.008064	-0.080288604377714	0.058986976266136554
-0.008062999999999999	-1.3646025152206251	0.07016549734020744
-0.008062	-2.5781860947417528	0.029177586735280862
-0.008061	-3.6168051704668898	0.029177586735280862
-0.00806	-4.409729411074252	-0.01181032386964572
-0.008059	-4.916009677377545	-0.04161971340050141
-0.008058	-5.113310075275152	-0.0527982344745723
-0.008057	-4.949513518529969	-0.09005997138814192
-0.008055999999999999	-4.491627689446844	-0.1124170135362837
-0.008055	-3.728484640974969	-0.11986936091899761
-0.008054	-2.708478810334512	-0.14967875044985332
-0.008053	-1.524676422948872	-0.13850022937578244
-0.008052	-0.24780781013983286	-0.14595257675849635
-0.008050999999999999	1.0551193457877581	-0.13477405568442546
-0.00805	2.3022067664613095	-0.11614318722764065
-0.008048999999999999	3.3743296833388703	-0.09005997138814192
-0.008048	4.237984255268016	-0.06770292924000015
-0.008047	4.781491011740668	-0.045345887091858376
-0.008046	5.060689688010866	-0.004357976486931796
-0.008045	4.9899593566890825	-0.004357976486931796
-0.008043999999999999	4.565577368758381	0.032903760426637826
-0.008043	3.873164651608291	0.06271314995749352
-0.008041999999999999	2.9127212052388094	0.06643932364885048
-0.008041	1.7363641158870415	0.07016549734020744
-0.00804	0.4706634501288102	0.07389167103156441
-0.008039	-0.8210957587479729	0.058986976266136554
-0.008038	-2.094241722540076	0.04408228150070871
-0.008036999999999999	-3.2184817256547404	0.058986976266136554
-0.008036	-4.130530734804054	-0.01181032386964572
-0.008035	-4.752213120632362	-0.022988844943716606
-0.008034	-5.083528883139664	-0.04907206078321534
-0.008033	-5.076083585105792	-0.06770292924000015
-0.008032	-4.741045173581554	-0.10496466615356977
-0.008031	-4.082136297583887	-0.11986936091899761
-0.008029999999999999	-3.162641990400701	-0.1310478819930685
-0.008029	-2.0272340402352285	-0.13850022937578244
-0.008028	-0.7764239705447412	-0.13850022937578244
-0.008027	0.5413937814505937	-0.1310478819930685
-0.008026	1.814539745242697	-0.13477405568442546
-0.008025	2.961115642458977	-0.11986936091899761
-0.008024	3.9029458437437787	-0.07515527662271407
-0.008022999999999999	4.602803858927741	-0.07142910293135711
-0.008022	5.004849952756826	-0.04161971340050141
-0.008021	5.071857635061674	-0.015536497561002682
-0.00802	4.781491011740668	0.032903760426637826
-0.008019	4.189589818047848	0.05153462888342263
-0.008017999999999999	3.3296578951356386	0.07389167103156441
-0.008017	2.224031137105654	0.08134401841427832
-0.008015999999999999	0.9918343124998467	0.09252253948834921
-0.008015	-0.30737019441080843	0.04408228150070871
-0.008014	-1.5991294032875916	0.058986976266136554
-0.008013	-2.7605958965716155	0.05153462888342263
-0.008012	-3.7843243762290086	0.017999065661209977
-0.008010999999999999	-4.5400221266670115	0.010546718278496053
-0.00801	-4.9904626577162645	-0.01181032386964572
-0.008009	-5.131923320359832	-0.0527982344745723
-0.008008	-4.901119081309801	-0.07888145031407104
-0.008007	-4.376225569921829	-0.09005997138814192
-0.008006	-3.57957868029753	-0.12359553461035458
-0.008005	-2.526069008504649	-0.1310478819930685
-0.008003999999999999	-1.2938721838988416	-0.1310478819930685
-0.008003	0.01277762104568536	-0.14967875044985332
-0.008002	1.2896462338547245	-0.14595257675849635
-0.008001	2.510675111409724	-0.1310478819930685
-0.008	3.549294187134861	-0.09005997138814192
-0.007999	4.360831672826903	-0.07888145031407104
-0.007998	4.874557237164067	-0.045345887091858376
-0.007996999999999999	5.079302933095546	-0.026715018635073567
-0.007996	4.941564919468915	0.010546718278496053
-0.007995	4.476233792351918	0.04408228150070871
-0.007994	3.701922796829236	0.05153462888342263
-0.007993	2.689362264222651	0.07016549734020744
-0.007991999999999999	1.524173121921691	0.0850701921056353
-0.007991	0.21380066796022798	0.07389167103156441
-0.007989999999999999	-1.0667905938657471	0.06271314995749352
-0.007989	-2.3138780145392985	0.07761784472292137
-0.007988	-3.3934462294507313	0.036629934117994783
-0.007987	-4.2459328543290695	0.00682054458713909
-0.007986	-4.8415566970388255	0.003094370895782128
-0.007984999999999999	-5.102142128224344	-0.04907206078321534
-0.007984	-5.038857094936432	-0.07888145031407104
-0.007982999999999999	-4.618197756022667	-0.09005997138814192
-0.007982	-3.9295076878895117	-0.10123849246221281
-0.007981	-2.980232188570838	-0.1124170135362837
-0.00798	-1.833656291354558	-0.14222640306713938
-0.007979	-0.5381744334608388	-0.13477405568442546
-0.007977999999999999	0.7535847754159443	-0.13850022937578244
-0.007977	2.0230080901911114	-0.12732170830171155
-0.007976	3.14352544428884	-0.10123849246221281
-0.007975	4.066742400488961	-0.04907206078321534
-0.007974	4.6884247863172686	-0.05652440816592926
-0.007973	5.030908495875378	-0.019262671252359642
-0.007972	5.027185846858442	0.00682054458713909
-0.007970999999999999	4.6995927333680765	0.021725239352566938
-0.00797	4.055574453438153	0.058986976266136554
-0.007969	3.136080146254968	0.05153462888342263
-0.007968	2.0006721960894955	0.07016549734020744
-0.007967	0.7684753714836882	0.07016549734020744
-0.007965999999999999	-0.5456197314947108	0.07761784472292137
-0.007965	-1.82248834430375	0.06271314995749352
-0.007963999999999999	-2.976509539553902	0.05153462888342263
-0.007963	-3.9592888800249995	0.014272891969853013
-0.007962	-4.644256299141219	0.010546718278496053
-0.007961	-5.05002504198724	-0.037893539709144455
-0.00796	-5.102142128224344	-0.060250581857286226
-0.007958999999999999	-4.834111399004954	-0.09005997138814192
-0.007958	-4.279436695481493	-0.09378614507949888
-0.007956999999999999	-3.3860009314168593	-0.11986936091899761
-0.007956	-2.2952647694546187	-0.1310478819930685
-0.007955	-1.0667905938657471	-0.13850022937578244
-0.007954	0.2398592110787798	-0.14222640306713938
-0.007953	1.524173121921691	-0.1310478819930685
-0.007951999999999999	2.693084913239587	-0.11986936091899761
-0.007951	3.701922796829236	-0.10496466615356977
-0.00795	4.457620547267238	-0.07888145031407104
-0.007949	4.941564919468915	-0.0527982344745723
-0.007948	5.07558028407861	-0.004357976486931796
-0.007947	4.867111939130195	0.0254514130439239
-0.007946	4.357109023809967	0.04780845519206567
-0.007944999999999999	3.545571538117925	0.04780845519206567
-0.007944	2.506952462392788	0.07761784472292137
-0.007943	1.2859235848377886	0.0552608025747796
-0.007942	-0.017003571089802435	0.06643932364885048
-0.007941	-1.2975948329157776	0.04780845519206567
-0.00794	-2.514901061453841	0.058986976266136554
-0.007939	-3.553520137178978	0.029177586735280862
-0.007937999999999999	-4.383670867955701	0.010546718278496053
-0.007937	-4.912287028360609	-0.026715018635073567
-0.007936	-5.120755373309024	-0.060250581857286226
-0.007935	-4.971849412631585	-0.07888145031407104
-0.007934	-4.521408881582332	-0.08633379769678495
-0.007932999999999999	-3.7806017272120727	-0.1124170135362837
-0.007932	-2.7866544396901674	-0.13850022937578244
-0.007930999999999999	-1.5730708601690397	-0.12732170830171155
-0.00793	-0.28875694932612855	-0.15340492414121026
-0.007929	1.0104475575845264	-0.13850022937578244
-0.007928	2.22775378612259	-0.10123849246221281
-0.007927	3.3110446500509587	-0.09378614507949888
-0.007925999999999999	4.19703511608172	-0.06770292924000015
-0.007925	4.781491011740668	-0.05652440816592926
-0.007924	5.053244389976994	-0.026715018635073567
-0.007923	5.012295250790698	-0.0006318027955748338
-0.007922	4.606526507944677	0.04780845519206567
-0.007921	3.8992231947268428	0.04035610780935175
-0.00792	2.957392993442041	0.036629934117994783
-0.007918999999999999	1.7996491491749531	0.058986976266136554
-0.007918	0.5265031853828498	0.09252253948834921
-0.007917	-0.7652560234939333	0.07016549734020744
-0.007916	-2.0421246363029724	0.058986976266136554
-0.007915	-3.1700872884345728	0.036629934117994783
-0.007914	-4.085858946600823	-0.0006318027955748338
-0.007913	-4.741045173581554	-0.008084150178288757
-0.007911999999999999	-5.079806234122728	-0.037893539709144455
-0.007911	-5.076083585105792	-0.0527982344745723
-0.00791	-4.767103716700106	-0.07888145031407104
-0.007909	-4.1044721916855025	-0.1124170135362837
-0.007908	-3.2035911295869965	-0.1310478819930685
-0.007906999999999999	-2.09051907352314	-0.11614318722764065
-0.007906	-0.8434316528495888	-0.15340492414121026
-0.007904999999999999	0.4855540461965541	-0.13477405568442546
-0.007904	1.7624226590055934	-0.11614318722764065
-0.007903	2.9164438542557454	-0.10123849246221281
-0.007902	3.865719353574419	-0.08633379769678495
-0.007901	4.584190613843061	-0.05652440816592926
-0.007899999999999999	4.9862367076721466	-0.04907206078321534
-0.007899	5.068134986044738	-0.004357976486931796
-0.007898	4.796381607808412	0.010546718278496053
-0.007897	4.230538957234144	0.036629934117994783
-0.007896	3.3817749813727422	0.06271314995749352
-0.007895	2.2724255743258217	0.06643932364885048
-0.007894	1.058841994804694	0.07761784472292137
-0.007892999999999999	-0.23663986308902493	0.07761784472292137
-0.007892	-1.550734966067424	0.06271314995749352
-0.007891	-2.712201459351448	0.04780845519206567
-0.00789	-3.732207289991905	0.017999065661209977
-0.007889	-4.484182391412972	0.017999065661209977
-0.007888	-4.979294710665457	-0.019262671252359642
-0.007887	-5.12447802232596	-0.045345887091858376
-0.007885999999999999	-4.908564379343673	-0.08633379769678495
-0.007885	-4.417174709108124	-0.11614318722764065
-0.007884	-3.594469276365274	-0.12732170830171155
-0.007883	-2.567018147690945	-0.11614318722764065
-0.007882	-1.3646025152206251	-0.14222640306713938
-0.007880999999999999	-0.061675359293034124	-0.12732170830171155
-0.00788	1.2412517966345569	-0.12732170830171155
-0.007878999999999999	2.4585580251726205	-0.10869083984492672
-0.007878	3.5046223989316294	-0.09751231877085584
-0.007877	4.345941076759159	-0.06397675554864318
-0.007876	4.8373307469947076	-0.037893539709144455
-0.007875	5.07558028407861	-0.01181032386964572
-0.007873999999999999	4.945287568485851	0.00682054458713909
-0.007873	4.498569686453534	0.029177586735280862
-0.007871999999999999	3.739149286998596	0.0552608025747796
-0.007871	2.7526472975105625	0.0552608025747796
-0.00787	1.5725675591418586	0.07389167103156441
-0.007869	0.2994215953497554	0.07016549734020744
-0.007868	-1.0146735076286435	0.07016549734020744
-0.007866999999999999	-2.261760928302195	0.04780845519206567
-0.007866	-3.3227158981289477	0.04035610780935175
-0.007865	-4.22731960924439	0.0254514130439239
-0.007864	-4.822943451954146	-0.015536497561002682
-0.007863	-5.0872515321566	-0.03416736601778749
-0.007862	-5.05002504198724	-0.07888145031407104
-0.007861	-4.670314842259771	-0.082607624005428
-0.007859999999999999	-3.9443982839572556	-0.10869083984492672
-0.007859	-2.998845433655518	-0.1310478819930685
-0.007858	-1.8634374834900458	-0.12732170830171155
-0.007857	-0.6014594667487504	-0.12732170830171155
-0.007856	0.7163582852465845	-0.12732170830171155
-0.007855	1.9820589510048159	-0.12359553461035458
-0.007854	3.121189550187224	-0.09005997138814192
-0.007852999999999999	4.025793261302665	-0.07888145031407104
-0.007852	4.677256839266461	-0.05652440816592926
-0.007851	5.034631144892314	-0.01181032386964572
-0.00785	5.049521740960058	0.003094370895782128
-0.007849	4.710760680418884	0.029177586735280862
-0.007847999999999999	4.1076915396752565	0.05153462888342263
-0.007847	3.1844745834751356	0.07761784472292137
-0.007845999999999999	2.093738421512895	0.07389167103156441
-0.007845	0.8168698087038558	0.07389167103156441
-0.007844	-0.4935026452576072	0.058986976266136554
-0.007843	-1.7703712580666464	0.06643932364885048
-0.007842	-2.9243924533167984	0.032903760426637826
-0.007840999999999999	-3.896003846737088	0.003094370895782128
-0.00784	-4.618197756022667	0.003094370895782128
-0.007839	-5.016521200834816	-0.01181032386964572
-0.007838	-5.0872515321566	-0.06397675554864318
-0.007837	-4.8490019950726975	-0.07142910293135711
-0.007836	-4.286881993515365	-0.09378614507949888
-0.007835	-3.426950070603155	-0.12732170830171155
-0.007833999999999999	-2.3473818556917223	-0.14222640306713938
-0.007833	-1.1300756271536587	-0.15713109783256723
-0.007832	0.17285152877393226	-0.15713109783256723
-0.007831	1.4571654396168434	-0.12732170830171155
-0.00783	2.648413125036355	-0.11614318722764065
-0.007829	3.6795869027276202	-0.10123849246221281
-0.007828	4.453897898250302	-0.06397675554864318
-0.007826999999999999	4.930396972418107	-0.04161971340050141
-0.007826	5.071857635061674	-0.01181032386964572
-0.007825	4.889447833231811	0.017999065661209977
-0.007824	4.383167566928519	0.021725239352566938
-0.007823	3.586520677304221	0.05153462888342263
-0.007821999999999999	2.55162425059602	0.07389167103156441
-0.007821	1.3343180220579562	0.07016549734020744
-0.007819999999999999	0.05372676023198108	0.07389167103156441
-0.007819	-1.241755097661738	0.07389167103156441
-0.007818	-2.4627839752167375	0.0552608025747796
