# Angular measurement - Y = -80.00 
# time [s]	ch1 [V]	ch2 [V]
# 
-0.008192	-3.315270600095076	0.502401645537615
-0.008191	-2.220811789115899	0.30491443989569605
-0.00819	-0.9662790704084759	0.09997488687106314
-0.008189	0.34781603256992305	-0.10123849246221281
-0.008187999999999999	1.6321299434128342	-0.3136303928695596
-0.008187	2.80104173473073	-0.5111175985114786
-0.008185999999999999	3.7763757771679556	-0.660164546165757
-0.008185	4.532073527605958	-0.8017591464373216
-0.008184	4.960178164553595	-0.857651751807676
-0.008183	5.079302933095546	-0.857651751807676
-0.008182	4.855943992079387	-0.8390208833508912
-0.008180999999999999	4.290101341505119	-0.7272356726101824
-0.00818	3.4525053126945258	-0.5819148986472609
-0.008178999999999999	2.4138862369693888	-0.41796325622755454
-0.008178	1.1742441143297093	-0.20557135582020775
-0.008177	-0.11751509454707375	-0.01181032386964572
-0.008176	-1.4204422504746648	0.20803392392041503
-0.008175	-2.6116899358941765	0.405521129562334
-0.008173999999999999	-3.6428637135854416	0.5881036404388251
-0.008173	-4.432065305175868	0.7296982407103897
-0.008172	-4.934622922462225	0.7855908460807441
-0.008171	-5.113310075275152	0.8191264093029568
-0.00817	-4.942068220496097	0.7632338039326023
-0.008169	-4.49535033846378	0.6887103301054631
-0.008168	-3.702426097856417	0.5620204245993264
-0.008166999999999999	-2.68242026721596	0.401794955870977
-0.008166	-1.4874499327795123	0.20058157653770112
-0.008165	-0.19196807488579323	-0.019262671252359642
-0.008164	1.1146817300587337	-0.22047605058563557
-0.008163	2.354323852698413	-0.4514988194497672
-0.008161999999999999	3.41155617350823	-0.6266289829435444
-0.008161	4.2528748513357595	-0.7384141936842533
-0.008159999999999999	4.822440150926964	-0.8390208833508912
-0.008159	5.07558028407861	-0.86510409919039
-0.008158	4.967623462587467	-0.8390208833508912
-0.008157	4.5544094217075735	-0.764497409523752
-0.008156	3.8210475653711873	-0.6564383724744001
-0.008154999999999999	2.8754947150694496	-0.5036652511287647
-0.008154	1.6916923276838098	-0.30245187179548877
-0.008152999999999999	0.42226901290864255	-0.09005997138814192
-0.008152	-0.8881034410528205	0.11487958163649098
-0.008151	-2.1463588087771797	0.3272714820438378
-0.00815	-3.251985566807164	0.506127819228972
-0.008149	-4.149143979888734	0.6551747668832505
-0.008147999999999999	-4.774549014733978	0.7706861513153163
-0.008147	-5.076083585105792	0.8079478882288859
-0.008146	-5.061192989038048	0.7930431934634581
-0.008145	-4.714986630463002	0.7371505880931036
-0.008144	-4.030019211346783	0.6290915510437517
-0.008143	-3.110524904163597	0.45023521385861753
-0.008142	-1.986284901048933	0.2825573977475543
-0.008140999999999999	-0.7205842352907016	0.06271314995749352
-0.00814	0.5786202716199534	-0.15340492414121026
-0.008139	1.8554888844289927	-0.3657968245485571
-0.008138	2.994619483611401	-0.5521055091164052
-0.008137	3.9252817378453946	-0.6787954146225419
-0.008136	4.628862402046293	-0.8092114938200355
-0.008135	5.008572601773762	-0.861377925499033
-0.008133999999999999	5.045799091943122	-0.857651751807676
-0.008133	4.75170981960518	-0.8166638412027495
-0.008132	4.167253923946232	-0.7160571515361115
-0.008131	3.299876703000151	-0.5819148986472609
-0.00813	2.1942499449701662	-0.3844276930053419
-0.008128999999999999	0.9508851733135509	-0.179488139980709
-0.008128	-0.3520419826140401	0.036629934117994783
-0.008126999999999999	-1.6400785424738873	0.25647418190805554
-0.008126	-2.808990333791783	0.4241519980191188
-0.008125	-3.8103829193475605	0.5918298141301821
-0.008124	-4.5400221266670115	0.7408767617844606
-0.008123	-4.9979079557501365	0.7930431934634581
-0.008121999999999999	-5.128200671342896	0.8079478882288859
-0.008121	-4.897396432292865	0.7706861513153163
-0.00812	-4.361334973854085	0.6738056353400352
-0.008119	-3.5386295411112343	0.5210325139943999
-0.008118	-2.4665066242336735	0.3496285241919796
-0.008117	-1.2603683427464178	0.16704601331548846
-0.008116	0.06117205826585303	-0.04907206078321534
-0.008114999999999999	1.3417633200918282	-0.26146396119056214
-0.008114	2.540456303545212	-0.48130820898062293
-0.008113	3.593965975338093	-0.6340813303262584
-0.008112	4.371999619877711	-0.764497409523752
-0.008111	4.896893131265683	-0.8427470570422482
-0.00811	5.07558028407861	-0.8539255781163191
-0.008109	4.922951674384235	-0.8501994044249621
-0.008107999999999999	4.453897898250302	-0.768223583215109
-0.008107	3.687032200761492	-0.6303551566349014
-0.008106	2.659581072087163	-0.45895116683248116
-0.008105	1.4646107376507154	-0.27636865595599003
-0.008104	0.17657417779086823	-0.045345887091858376
-0.008102999999999999	-1.1226303291197868	0.1633198396241315
-0.008102	-2.3324912596239784	0.36080704526605045
-0.008100999999999999	-3.434395368637027	0.5582942509079695
-0.0081	-4.290604642532301	0.6738056353400352
-0.008099	-4.856447293106569	0.7632338039326023
-0.008098	-5.090974181173536	0.8154002356115998
-0.008097	-5.023966498868688	0.7930431934634581
-0.008095999999999999	-4.618197756022667	0.7222458933276757
-0.008095	-3.907171793787896	0.599282161512896
-0.008094	-2.9132245062659905	0.4390566927845467
-0.008093	-1.7778165561005184	0.23784331345127072
-0.008092	-0.4935026452576072	0.032903760426637826
-0.008091	0.8280377557546638	-0.17576196628935203
-0.00809	2.075125176428215	-0.3695229982399141
-0.008088999999999999	3.1807519344581996	-0.5781887249559039
-0.008088	4.070465049505897	-0.7421403673756103
-0.008087	4.721928627469692	-0.8241161885854634
-0.008086	5.01974054882457	-0.868830272881747
-0.008085	5.027185846858442	-0.8464732307336051
-0.008084	4.684702137300333	-0.8017591464373216
-0.008083	4.044406506387345	-0.6937001093879698
-0.008081999999999999	3.10629895411948	-0.5409269880423343
-0.008081	1.963445705920136	-0.34343978240041534
-0.00808	0.7051903381957766	-0.15713109783256723
-0.008079	-0.5828462216640705	0.07016549734020744
-0.008078	-1.8671601325069818	0.29373591882162514
-0.008076999999999999	-2.998845433655518	0.49122312446354416
-0.008076	-3.9592888800249995	0.6290915510437517
-0.008074999999999999	-4.651701597175091	0.7483291091671745
-0.008074	-5.027689147885624	0.8004955408461719
-0.008073	-5.083528883139664	0.8042217145375289
-0.008072	-4.8378340480218895	0.7595076302412453
-0.008071	-4.22731960924439	0.6663532879573213
-0.008069999999999999	-3.3636650373152435	0.502401645537615
-0.008069	-2.261760928302195	0.32354530835248085
-0.008067999999999999	-1.0444546997641313	0.13723662378463275
-0.008067	0.28825364829894745	-0.08633379769678495
-0.008066	1.5762902081587946	-0.30990421917820266
-0.008065	2.7600925955444344	-0.5036652511287647
-0.008064	3.73542663798166	-0.667616893548471
-0.008062999999999999	4.487401739402726	-0.7756759305978229
-0.008062	4.949010217502787	-0.857651751807676
-0.008061	5.071857635061674	-0.868830272881747
-0.00806	4.855943992079387	-0.8166638412027495
-0.008059	4.345941076759159	-0.7384141936842533
-0.008058	3.5232356440163093	-0.5930934197213318
-0.008057	2.4808939192742363	-0.4328679509929824
-0.008055999999999999	1.2449744456514928	-0.23165457165970646
-0.008055	-0.05423006125916218	-0.004357976486931796
-0.008054	-1.3534345681698172	0.20430775022905806
-0.008053	-2.552127551623201	0.3980687821796201
-0.008052	-3.609359872433018	0.5582942509079695
-0.008050999999999999	-4.413452060091188	0.7073411985622479
-0.00805	-4.908564379343673	0.7781384986980302
-0.008048999999999999	-5.1356459693767675	0.8116740619202428
-0.008048	-4.964404114597713	0.7744123250066732
-0.008047	-4.506518285514588	0.699888851179534
-0.008046	-3.743375237042713	0.5694727719820404
-0.008045	-2.7270920554191918	0.401794955870977
-0.008043999999999999	-1.5581802641012958	0.20430775022905806
-0.008043	-0.24780781013983286	0.003094370895782128
-0.008041999999999999	1.0439513987369502	-0.2092975295115647
-0.008041	2.2761482233427577	-0.4216894299189115
-0.00804	3.3743296833388703	-0.5968195934126888
-0.008039	4.230538957234144	-0.7160571515361115
-0.008038	4.829885448960836	-0.8315685359681774
-0.008036999999999999	5.049521740960058	-0.8539255781163191
-0.008036	4.978791409638275	-0.8539255781163191
-0.008035	4.573022666792253	-0.8017591464373216
-0.008034	3.876887300625227	-0.671343067239828
-0.008033	2.9089985562218734	-0.4924867300546938
-0.008032	1.7438094139209135	-0.3061780454868457
-0.008031	0.4781087481626822	-0.082607624005428
-0.008029999999999999	-0.8248184077649089	0.11860575532784795
-0.008029	-2.079351126472332	0.31236678727840994
-0.008028	-3.1924231825361886	0.4874969507721872
-0.008027	-4.11564013873631	0.6439962458091796
-0.008026	-4.759658418666234	0.7483291091671745
-0.008025	-5.064915638054984	0.8228525829943137
-0.008024	-5.072360936088856	0.7930431934634581
-0.008022999999999999	-4.729877226530746	0.7371505880931036
-0.008022	-4.089581595617759	0.6290915510437517
-0.008021	-3.1738099374515087	0.49122312446354416
-0.00802	-2.0570152323707163	0.2825573977475543
-0.008019	-0.7838692685786132	0.0850701921056353
-0.008017999999999999	0.5339484834167217	-0.13477405568442546
-0.008017	1.7922038511410812	-0.3359874350177014
-0.008015999999999999	2.942502397374297	-0.5222961195855494
-0.008015	3.9066684927607147	-0.6862477620052558
-0.008014	4.591635911876933	-0.8092114938200355
-0.008013	4.9936820057060185	-0.857651751807676
-0.008012	5.060689688010866	-0.868830272881747
-0.008010999999999999	4.774045713706796	-0.8129376675113925
-0.00801	4.208203063132528	-0.7197833252274685
-0.008009	3.3222125971017666	-0.5781887249559039
-0.008008	2.253812329241142	-0.39560621407941277
-0.008007	1.0141702066014624	-0.18694048736342292
-0.008006	-0.2962022473600005	0.029177586735280862
-0.008005	-1.5879614562367836	0.24529566083398466
-0.008003999999999999	-2.7568732475546796	0.44650904016726056
-0.008003	-3.761988482127393	0.5769251193647542
-0.008002	-4.536299477650076	0.703615024870891
-0.008001	-4.975572061648521	0.7930431934634581
-0.008	-5.120755373309024	0.8154002356115998
-0.007999	-4.901119081309801	0.7706861513153163
-0.007998	-4.3911161659895726	0.6887103301054631
-0.007996999999999999	-3.575856031280594	0.5545680772166125
-0.007996	-2.511178412436905	0.3682593926487644
-0.007995	-1.3087627799665855	0.1819507080809163
-0.007994	0.0016096739948774363	-0.037893539709144455
-0.007993	1.2784782868039166	-0.24655926642513432
-0.007991999999999999	2.4883392173081083	-0.4514988194497672
-0.007991	3.5306809420501812	-0.6340813303262584
-0.007989999999999999	4.353386374793031	-0.7756759305978229
-0.007989	4.878279886181003	-0.8427470570422482
-0.007988	5.097916178180226	-0.8800087939558179
-0.007987	4.930396972418107	-0.8427470570422482
-0.007986	4.479956441368854	-0.771949756906466
-0.007984999999999999	3.705645445846172	-0.6378075040176153
-0.007984	2.700530211273459	-0.473855861597909
-0.007982999999999999	1.527895770938627	-0.2838210033387039
-0.007982	0.25847245616345965	-0.04907206078321534
-0.007981	-1.0630679448488112	0.15959366593277452
-0.00798	-2.2878194714207467	0.36080704526605045
-0.007979	-3.3822782823999233	0.5359372087598276
-0.007977999999999999	-4.260823450396813	0.6738056353400352
-0.007977	-4.8378340480218895	0.7557814565498884
-0.007976	-5.098419479207408	0.8079478882288859
-0.007975	-5.023966498868688	0.8042217145375289
-0.007974	-4.621920405039603	0.7185197196363188
-0.007973	-3.9369529859233836	0.603008335204253
-0.007972	-2.972786890536966	0.4390566927845467
-0.007970999999999999	-1.818765695286814	0.25647418190805554
-0.00797	-0.5418970824777748	0.04780845519206567
-0.007969	0.7535847754159443	-0.18321431367206598
-0.007968	2.0155627921572394	-0.3695229982399141
-0.007967	3.136080146254968	-0.567010203881833
-0.007965999999999999	4.051851804421217	-0.7160571515361115
-0.007965	4.7033153823850125	-0.8203900148941065
-0.007963999999999999	5.034631144892314	-0.86510409919039
-0.007963	5.012295250790698	-0.86510409919039
-0.007962	4.6958700843511405	-0.8203900148941065
-0.007961	4.085355645573641	-0.6974262830793267
-0.00796	3.1584160403565837	-0.5409269880423343
-0.007958999999999999	2.0267307392080474	-0.3657968245485571
-0.007958	0.790811265585304	-0.15340492414121026
-0.007956999999999999	-0.5418970824777748	0.04780845519206567
-0.007956	-1.8001524502021342	0.2639265292907695
-0.007955	-2.976509539553902	0.4725922560067593
-0.007954	-3.9146170918217678	0.6179130299696808
-0.007953	-4.625643054056539	0.7446029354758176
-0.007951999999999999	-5.023966498868688	0.7967693671548151
-0.007951	-5.094696830190472	0.8116740619202428
-0.00795	-4.8378340480218895	0.7632338039326023
-0.007949	-4.2496555033460055	0.6738056353400352
-0.007948	-3.408336825518475	0.5247586876857568
-0.007947	-2.3138780145392985	0.35335469788333657
-0.007946	-1.085403838950427	0.12605810271056186
-0.007944999999999999	0.22124596599409993	-0.07142910293135711
-0.007944	1.520450472904755	-0.2875471770300609
-0.007943	2.700530211273459	-0.4924867300546938
-0.007942	3.701922796829236	-0.663890719857114
-0.007941	4.461343196284174	-0.7831282779805369
-0.00794	4.926674323401171	-0.8464732307336051
-0.007939	5.07558028407861	-0.868830272881747
-0.007937999999999999	4.885725184214875	-0.8427470570422482
-0.007937	4.342218427742223	-0.7533188884496811
-0.007936	3.567907432219541	-0.6154504618694735
-0.007935	2.506952462392788	-0.44777264575841025
-0.007934	1.3082594789394044	-0.24655926642513432
-0.007932999999999999	0.01277762104568536	-0.03416736601778749
-0.007932	-1.2901495348819056	0.18940305546363023
-0.007930999999999999	-2.511178412436905	0.3831640874141922
-0.00793	-3.564688084229786	0.5620204245993264
-0.007929	-4.3911161659895726	0.6812579827227492
-0.007928	-4.908564379343673	0.7855908460807441
-0.007927	-5.113310075275152	0.8004955408461719
-0.007925999999999999	-4.9904626577162645	0.7855908460807441
-0.007925	-4.5511900737178195	0.7259720670190327
-0.007924	-3.7806017272120727	0.5769251193647542
-0.007923	-2.7717638436224235	0.405521129562334
-0.007922	-1.6028520523045275	0.21548627130312895
-0.007921	-0.33342873752936025	0.010546718278496053
-0.00792	1.0030022595506545	-0.21302370320292166
-0.007918999999999999	2.235199084156462	-0.4254156036102685
-0.007918	3.3147672990678947	-0.5744625512645469
-0.007917	4.17842187099704	-0.7495927147583241
-0.007916	4.785213660757604	-0.8352947096595343
-0.007915	5.053244389976994	-0.8725564465731039
-0.007914	5.004849952756826	-0.868830272881747
-0.007913	4.625139753029357	-0.7980329727459646
-0.007911999999999999	3.9215590888284586	-0.6825215883138989
-0.007911	2.946225046391233	-0.5222961195855494
-0.00791	1.810817096225761	-0.3359874350177014
-0.007909	0.5451164304675297	-0.10496466615356977
-0.007908	-0.7652560234939333	0.11860575532784795
-0.007906999999999999	-2.0235113912182925	0.31236678727840994
-0.007906	-3.1700872884345728	0.49867547184625804
-0.007904999999999999	-4.089581595617759	0.6328177247351087
-0.007904	-4.711263981446066	0.7520552828585315
-0.007903	-5.072360936088856	0.8116740619202428
-0.007902	-5.079806234122728	0.8079478882288859
-0.007901	-4.74476782259849	0.7408767617844606
-0.007899999999999999	-4.119362787753246	0.6290915510437517
-0.007899	-3.2259270236886124	0.4949492981549011
-0.007898	-2.064460530404588	0.3160929609697669
-0.007897	-0.8545995999003967	0.09997488687106314
-0.007896	0.45205020504413035	-0.10123849246221281
-0.007895	1.7326414668701056	-0.3359874350177014
-0.007894	2.8829400131033216	-0.5260222932769064
-0.007892999999999999	3.865719353574419	-0.667616893548471
-0.007892	4.573022666792253	-0.7905806253632508
-0.007891	4.9899593566890825	-0.8725564465731039
-0.00789	5.068134986044738	-0.8539255781163191
-0.007889	4.811272203876156	-0.8129376675113925
-0.007888	4.23426160625108	-0.7197833252274685
-0.007887	3.3780523323558063	-0.5744625512645469
-0.007885999999999999	2.3022067664613095	-0.39560621407941277
-0.007885	1.077455239889374	-0.22047605058563557
-0.007884	-0.22919456505515298	0.017999065661209977
-0.007883	-1.524676422948872	0.21548627130312895
-0.007882	-2.71964675738532	0.41297347694504793
-0.007880999999999999	-3.717316693924161	0.5843774667474682
-0.00788	-4.480459742396036	0.7110673722536048
-0.007878999999999999	-4.964404114597713	0.7706861513153163
-0.007878	-5.120755373309024	0.8004955408461719
-0.007877	-4.927177624428353	0.7744123250066732
-0.007876	-4.4022841130403805	0.6887103301054631
-0.007875	-3.6205278194838257	0.5508419035252555
-0.007873999999999999	-2.567018147690945	0.37571174003147834
-0.007873	-1.3534345681698172	0.16704601331548846
-0.007871999999999999	-0.07656595536077802	-0.04907206078321534
-0.007871	1.215193253516005	-0.2391069190424204
-0.00787	2.4362221310710046	-0.4552249931411242
-0.007869	3.4897318028638855	-0.6191766355608305
-0.007868	4.308714586589799	-0.7458665410669673
-0.007866999999999999	4.859666641096323	-0.8352947096595343
-0.007866	5.064412337027802	-0.868830272881747
-0.007865	4.960178164553595	-0.8427470570422482
-0.007864	4.513460282521278	-0.771949756906466
-0.007863	3.739149286998596	-0.6489860250916862
-0.007862	2.7563699465274984	-0.4850343826719799
-0.007861	1.5725675591418586	-0.2838210033387039
-0.007859999999999999	0.31803484043443525	-0.07142910293135711
-0.007859	-1.0072282095947716	0.1521413185500606
-0.007858	-2.235702385183643	0.3496285241919796
-0.007857	-3.3338838451797557	0.509853992920329
-0.007856	-4.223596960227454	0.6551747668832505
-0.007855	-4.80060755785253	0.7483291091671745
-0.007854	-5.0872515321566	0.8116740619202428
-0.007852999999999999	-5.023966498868688	0.8042217145375289
-0.007852	-4.670314842259771	0.7296982407103897
-0.007851	-3.9592888800249995	0.6141868562783239
-0.00785	-3.0286266257910057	0.44278286647590365
-0.007849	-1.8820507285747257	0.2639265292907695
-0.007847999999999999	-0.6014594667487504	0.05153462888342263
-0.007847	0.7200809342635205	-0.1608572715239242
-0.007845999999999999	1.948555109852392	-0.37697534562262797
-0.007845	3.098853656085608	-0.5446531617336913
-0.007844	4.029515910319601	-0.7197833252274685
-0.007843	4.6921474353342045	-0.7943067990546077
-0.007842	5.023463197841506	-0.8762826202644609
-0.007840999999999999	5.042076442926186	-0.861377925499033
-0.00784	4.740541872554372	-0.8129376675113925
-0.007839	4.0965235926244485	-0.7048786304620406
-0.007838	3.2068104775767514	-0.5297484669682634
-0.007837	2.086293123479023	-0.3657968245485571
-0.007836	0.8503736498562796	-0.15713109783256723
-0.007835	-0.4786120491898633	0.04780845519206567
-0.007833999999999999	-1.7554806619989025	0.2639265292907695
-0.007833	-2.9057792082321185	0.4763184296981163
-0.007832	-3.888558548703216	0.6253653773523947
-0.007831	-4.607029808971859	0.7371505880931036
-0.00783	-5.016521200834816	0.7967693671548151
-0.007829	-5.113310075275152	0.8191264093029568
-0.007828	-4.871337889174313	0.7706861513153163
-0.007826999999999999	-4.298049940566173	0.6626271142659643
-0.007826	-3.453008613721707	0.506127819228972
-0.007825	-2.3585498027425302	0.3459023505006226
-0.007824	-1.1375209251875307	0.1335104500932758
-0.007823	0.17285152877393226	-0.082607624005428
-0.007821999999999999	1.4422748435490995	-0.27264248226463306
-0.007821	2.6297998799516753	-0.48130820898062293
-0.007819999999999999	3.6609736576429404	-0.6415336777089723
-0.007819	4.442729951199494	-0.760771235832395
-0.007818	4.911783727333427	-0.8390208833508912
-0.007817	5.079302933095546	-0.8762826202644609
-0.007816	4.911783727333427	-0.8278423622768204
-0.007814999999999999	4.3980581629962625	-0.7495927147583241
-0.007814	3.6014112733719648	-0.6117242881781165
-0.007813	2.547901601579084	-0.4403202983756963
-0.0078119999999999995	1.364099214193444	-0.2502854401164913
-0.007810999999999999	0.064894707282789	-0.04907206078321534
