# Angular measurement - Y = -320.00 
# time [s]	ch1 [V]	ch2 [V]
# 
-0.008192	-4.231042258261326	0.003094370895782128
-0.008191	-4.834111399004954	0.00682054458713909
-0.00819	-5.102142128224344	0.003094370895782128
-0.008189	-5.038857094936432	0.003094370895782128
-0.008187999999999999	-4.647978948158155	-0.004357976486931796
-0.008187	-3.9481209329741915	-0.0006318027955748338
-0.008185999999999999	-2.98767748660471	-0.015536497561002682
-0.008185	-1.8559921854561738	-0.026715018635073567
-0.008184	-0.5679556255963266	-0.019262671252359642
-0.008183	0.7498621263990083	-0.05652440816592926
-0.008182	1.9932268980556238	-0.07142910293135711
-0.008180999999999999	3.121189550187224	-0.07142910293135711
-0.00818	4.040683857370409	-0.04161971340050141
-0.008178999999999999	4.6958700843511405	-0.07142910293135711
-0.008178	5.03835379390925	-0.060250581857286226
-0.008177	5.049521740960058	-0.05652440816592926
-0.008176	4.725651276486628	-0.045345887091858376
-0.008175	4.085355645573641	-0.045345887091858376
-0.008173999999999999	3.1658613383904557	-0.030441192326430527
-0.008173	2.0453439842927272	-0.019262671252359642
-0.008172	0.7833659675514321	-0.019262671252359642
-0.008171	-0.5195611883761589	-0.008084150178288757
-0.00817	-1.7852618541343903	-0.015536497561002682
-0.008169	-2.9355604003676063	-0.004357976486931796
-0.008168	-3.9146170918217678	0.014272891969853013
-0.008166999999999999	-4.610752457988795	0.00682054458713909
-0.008166	-5.038857094936432	0.010546718278496053
-0.008165	-5.10586477724128	-0.008084150178288757
-0.008164	-4.8490019950726975	0.00682054458713909
-0.008163	-4.2571008013798775	-0.0006318027955748338
-0.008161999999999999	-3.426950070603155	-0.019262671252359642
-0.008161	-2.3473818556917223	-0.04161971340050141
-0.008159999999999999	-1.104017084035107	-0.045345887091858376
-0.008159	0.1951874228755481	-0.06770292924000015
-0.008158	1.4981145788031391	-0.05652440816592926
-0.008157	2.681916966188779	-0.07142910293135711
-0.008156	3.6982001478123	-0.06397675554864318
-0.008154999999999999	4.472511143334982	-0.05652440816592926
-0.008154	4.937842270451979	-0.05652440816592926
-0.008152999999999999	5.086748231129418	-0.0527982344745723
-0.008152	4.896893131265683	-0.060250581857286226
-0.008151	4.390612864962391	-0.04161971340050141
-0.00815	3.556739485168733	-0.045345887091858376
-0.008149	2.525565707477468	-0.0527982344745723
-0.008147999999999999	1.3157047769732764	-0.019262671252359642
-0.008147	0.020222919079557308	-0.019262671252359642
-0.008146	-1.2901495348819056	0.003094370895782128
-0.008145	-2.4962878163691613	0.003094370895782128
-0.008144	-3.5423521901281703	-0.008084150178288757
-0.008143	-4.361334973854085	0.021725239352566938
-0.008142	-4.927177624428353	0.010546718278496053
-0.008140999999999999	-5.113310075275152	-0.0006318027955748338
-0.00814	-4.9904626577162645	-0.0006318027955748338
-0.008139	-4.5437447756839475	-0.004357976486931796
-0.008138	-3.7992149722967525	-0.01181032386964572
-0.008137	-2.8052676847748472	-0.03416736601778749
-0.008136	-1.6289105954230794	-0.0527982344745723
-0.008135	-0.33342873752936025	-0.037893539709144455
-0.008133999999999999	0.9657757693812948	-0.060250581857286226
-0.008133	2.20914054103791	-0.060250581857286226
-0.008132	3.3147672990678947	-0.060250581857286226
-0.008131	4.170976572963168	-0.0527982344745723
-0.00813	4.781491011740668	-0.06397675554864318
-0.008128999999999999	5.079302933095546	-0.06770292924000015
-0.008128	5.016017899807634	-0.060250581857286226
-0.008126999999999999	4.602803858927741	-0.0527982344745723
-0.008126	3.9290043868623306	-0.04161971340050141
-0.008125	2.972283589509785	-0.019262671252359642
-0.008124	1.825707692293505	-0.008084150178288757
-0.008123	0.5525617285014016	-0.022988844943716606
-0.008121999999999999	-0.7503654274261894	0.00682054458713909
-0.008121	-2.0048981461336126	0.00682054458713909
-0.00812	-3.136583447282149	0.014272891969853013
-0.008119	-4.070968350533079	0.010546718278496053
-0.008118	-4.714986630463002	0.00682054458713909
-0.008117	-5.06863828707192	-0.004357976486931796
-0.008116	-5.094696830190472	0.003094370895782128
-0.008114999999999999	-4.76338106768317	-0.0006318027955748338
-0.008114	-4.13425338382099	-0.01181032386964572
-0.008113	-3.2222043746716764	-0.008084150178288757
-0.008112	-2.1463588087771797	-0.045345887091858376
-0.008111	-0.8769354940020125	-0.04161971340050141
-0.00811	0.4557728540610663	-0.04907206078321534
-0.008109	1.7140282217854257	-0.060250581857286226
-0.008107999999999999	2.8754947150694496	-0.07515527662271407
-0.008107	3.839660810455867	-0.06397675554864318
-0.008106	4.584190613843061	-0.07515527662271407
-0.008105	4.971346111604403	-0.060250581857286226
-0.008104	5.079302933095546	-0.060250581857286226
-0.008102999999999999	4.80754955485922	-0.04161971340050141
-0.008102	4.23426160625108	-0.0527982344745723
-0.008100999999999999	3.385497630389678	-0.030441192326430527
-0.0081	2.3245426605629254	-0.022988844943716606
-0.008099	1.077455239889374	-0.01181032386964572
-0.008098	-0.22174926702128103	-0.015536497561002682
-0.008097	-1.5135084758980641	0.003094370895782128
-0.008095999999999999	-2.697310863283704	0.003094370895782128
-0.008095	-3.702426097856417	-0.008084150178288757
-0.008094	-4.499072987480716	0.014272891969853013
-0.008093	-4.979294710665457	0.003094370895782128
-0.008092	-5.120755373309024	-0.0006318027955748338
-0.008091	-4.942068220496097	-0.01181032386964572
-0.00809	-4.424620007141996	-0.004357976486931796
-0.008088999999999999	-3.6354184155515696	-0.015536497561002682
-0.008088	-2.5856313927756247	-0.019262671252359642
-0.008087	-1.394383707356113	-0.05652440816592926
-0.008086	-0.09145655142852192	-0.04907206078321534
-0.008085	1.226361200566813	-0.06397675554864318
-0.008084	2.4213315350032607	-0.05652440816592926
-0.008083	3.4860091538469495	-0.06397675554864318
-0.008081999999999999	4.312437235606735	-0.06397675554864318
-0.008081	4.8522213430624515	-0.060250581857286226
-0.00808	5.064412337027802	-0.0527982344745723
-0.008079	4.956455515536659	-0.07142910293135711
-0.008078	4.52090558055515	-0.04161971340050141
-0.008076999999999999	3.7800984261848916	-0.030441192326430527
-0.008076	2.7861511386629862	-0.03416736601778749
-0.008074999999999999	1.6023487512773464	-0.004357976486931796
-0.008074	0.3254801384683072	0.00682054458713909
-0.008073	-0.9886149645100918	-0.022988844943716606
-0.008072	-2.213366491082027	-0.004357976486931796
-0.008071	-3.3301611961628197	0.003094370895782128
-0.008069999999999999	-4.19009311907503	-0.0006318027955748338
-0.008069	-4.80060755785253	0.00682054458713909
-0.008067999999999999	-5.076083585105792	-0.008084150178288757
-0.008067	-5.046302392970304	-0.015536497561002682
-0.008066	-4.681482789310579	-0.015536497561002682
-0.008065	-3.9853474231435513	-0.022988844943716606
-0.008064	-3.0472398708756856	-0.0006318027955748338
-0.008062999999999999	-1.9081092716932775	-0.026715018635073567
-0.008062	-0.6349633079011742	-0.04161971340050141
-0.008061	0.649350602941737	-0.06397675554864318
-0.00806	1.9336645137846482	-0.07515527662271407
-0.008059	3.0727951129670563	-0.045345887091858376
-0.008058	4.007180016217985	-0.05652440816592926
-0.008057	4.673534190249525	-0.07888145031407104
-0.008055999999999999	5.030908495875378	-0.04907206078321534
-0.008055	5.034631144892314	-0.06770292924000015
-0.008054	4.740541872554372	-0.03416736601778749
-0.008053	4.122582135743	-0.06397675554864318
-0.008052	3.2142557756106234	-0.037893539709144455
-0.008050999999999999	2.093738421512895	-0.015536497561002682
-0.00805	0.8652642459240235	-0.022988844943716606
-0.008048999999999999	-0.45255350607131145	-0.01181032386964572
-0.008048	-1.7368674169142226	0.014272891969853013
-0.008047	-2.8871659631474387	0.014272891969853013
-0.008046	-3.869945303618536	-0.022988844943716606
-0.008045	-4.618197756022667	0.017999065661209977
-0.008043999999999999	-5.016521200834816	0.00682054458713909
-0.008043	-5.109587426258216	-0.004357976486931796
-0.008041999999999999	-4.863892591140441	0.017999065661209977
-0.008041	-4.305495238600045	-0.004357976486931796
-0.00804	-3.453008613721707	-0.026715018635073567
-0.008039	-2.373440398810274	-0.03416736601778749
-0.008038	-1.1524115212552746	-0.03416736601778749
-0.008036999999999999	0.14679298565538043	-0.045345887091858376
-0.008036	1.4311068964982916	-0.060250581857286226
-0.008035	2.6186319329008674	-0.0527982344745723
-0.008034	3.6535283596090684	-0.04907206078321534
-0.008033	4.431562004148686	-0.06397675554864318
-0.008032	4.911783727333427	-0.05652440816592926
-0.008031	5.064412337027802	-0.05652440816592926
-0.008029999999999999	4.882002535197939	-0.04907206078321534
-0.008029	4.412948759064006	-0.04161971340050141
-0.008028	3.6125792204227727	-0.026715018635073567
-0.008027	2.5851280917484436	-0.037893539709144455
-0.008026	1.378989810261188	-0.008084150178288757
-0.008025	0.09839854843521277	-0.01181032386964572
-0.008024	-1.223141852577058	-0.004357976486931796
-0.008022999999999999	-2.425557485047378	0.00682054458713909
-0.008022	-3.5014030509418745	-0.0006318027955748338
-0.008021	-4.316663185650853	-0.015536497561002682
-0.00802	-4.878783187208185	-0.0006318027955748338
-0.008019	-5.10586477724128	0.00682054458713909
-0.008017999999999999	-5.005353253784008	0.010546718278496053
-0.008017	-4.566080669785563	-0.004357976486931796
-0.008015999999999999	-3.8438867604999842	-0.026715018635073567
-0.008015	-2.864830069045823	-0.022988844943716606
-0.008014	-1.673582383626311	-0.019262671252359642
-0.008013	-0.3892684727833999	-0.030441192326430527
-0.008012	0.9062133851103192	-0.04161971340050141
-0.008010999999999999	2.1458555077499986	-0.06397675554864318
-0.00801	3.251482265779983	-0.0527982344745723
-0.008009	4.14119538082768	-0.05652440816592926
-0.008008	4.759155117639052	-0.07888145031407104
-0.008007	5.034631144892314	-0.05652440816592926
-0.008006	5.016017899807634	-0.0527982344745723
-0.008005	4.640030349097101	-0.05652440816592926
-0.008003999999999999	3.9773988240824982	-0.04907206078321534
-0.008003	3.0132327286960807	-0.037893539709144455
-0.008002	1.8927153745983525	-0.04907206078321534
-0.008001	0.6158467617893132	-0.030441192326430527
-0.008	-0.6796350961044059	-0.01181032386964572
-0.007999	-1.9565037089134452	-0.004357976486931796
-0.007998	-3.0956343080958533	0.021725239352566938
-0.007996999999999999	-4.030019211346783	0.003094370895782128
-0.007996	-4.681482789310579	0.0254514130439239
-0.007995	-5.064915638054984	0.010546718278496053
-0.007994	-5.076083585105792	0.00682054458713909
-0.007993	-4.789439610801722	-0.015536497561002682
-0.007991999999999999	-4.17147987399035	-0.004357976486931796
-0.007991	-3.281766758942652	-0.030441192326430527
-0.007989999999999999	-2.1686947028787955	-0.022988844943716606
-0.007989	-0.9290525802391162	-0.022988844943716606
-0.007988	0.3664292776546029	-0.04161971340050141
-0.007987	1.6470205394805781	-0.06770292924000015
-0.007986	2.834545575883154	-0.07888145031407104
-0.007984999999999999	3.7987116712695714	-0.06770292924000015
-0.007984	4.558132070724509	-0.082607624005428
-0.007982999999999999	4.982514058655211	-0.06397675554864318
-0.007982	5.068134986044738	-0.06770292924000015
-0.007981	4.829885448960836	-0.04907206078321534
-0.00798	4.290101341505119	-0.0527982344745723
-0.007979	3.43016941859291	-0.037893539709144455
-0.007977999999999999	2.365491799749221	-0.022988844943716606
-0.007977	1.1667988162958374	-0.019262671252359642
-0.007976	-0.14357363766562556	-0.01181032386964572
-0.007975	-1.4390554955593446	0.003094370895782128
-0.007974	-2.6489164260635363	0.00682054458713909
-0.007973	-3.6614769586701215	-0.0006318027955748338
-0.007972	-4.473014444362164	-0.004357976486931796
-0.007970999999999999	-4.956958816563841	0.00682054458713909
-0.00797	-5.128200671342896	0.010546718278496053
-0.007969	-4.953236167546905	0.014272891969853013
-0.007968	-4.450678550260548	-0.022988844943716606
-0.007967	-3.6651996076870574	-0.019262671252359642
-0.007965999999999999	-2.6451937770466003	-0.030441192326430527
-0.007965	-1.4465007935932166	-0.037893539709144455
-0.007963999999999999	-0.16218688275030543	-0.0527982344745723
-0.007963	1.1481855712111575	-0.06397675554864318
-0.007962	2.384105044833901	-0.045345887091858376
-0.007961	3.419001471542102	-0.045345887091858376
-0.00796	4.271488096420439	-0.060250581857286226
-0.007958999999999999	4.8410533960116435	-0.07142910293135711
-0.007958	5.071857635061674	-0.06770292924000015
-0.007956999999999999	4.963900813570531	-0.03416736601778749
-0.007956	4.535796176622894	-0.04161971340050141
-0.007955	3.8061569693034434	-0.019262671252359642
-0.007954	2.830822926866218	-0.026715018635073567
-0.007953	1.665633784565258	-0.015536497561002682
-0.007951999999999999	0.3887651717562188	0.003094370895782128
-0.007951	-0.9253299312221802	-0.026715018635073567
-0.00795	-2.1686947028787955	-0.008084150178288757
-0.007949	-3.263153513857972	0.003094370895782128
-0.007948	-4.178925172024222	-0.0006318027955748338
-0.007947	-4.785716961784786	0.021725239352566938
-0.007946	-5.072360936088856	0.00682054458713909
-0.007944999999999999	-5.061192989038048	0.003094370895782128
-0.007944	-4.685205438327515	0.003094370895782128
-0.007943	-4.030019211346783	-0.022988844943716606
-0.007942	-3.0844663610450453	-0.015536497561002682
-0.007941	-1.963949006947317	-0.0527982344745723
-0.00794	-0.6982483411890857	-0.04907206078321534
-0.007939	0.6084014637554412	-0.04161971340050141
-0.007937999999999999	1.8815474275475446	-0.05652440816592926
-0.007937	3.0244006757468886	-0.05652440816592926
-0.007936	3.9476176319470104	-0.07142910293135711
-0.007935	4.647475647130973	-0.060250581857286226
-0.007934	5.016017899807634	-0.05652440816592926
-0.007932999999999999	5.07558028407861	-0.04907206078321534
-0.007932	4.755432468622116	-0.0527982344745723
-0.007930999999999999	4.144918029844616	-0.037893539709144455
-0.00793	3.277540808898535	-0.060250581857286226
-0.007929	2.1644687528346784	-0.019262671252359642
-0.007928	0.9099360341272552	-0.022988844943716606
-0.007927	-0.4041590688511438	-0.0006318027955748338
-0.007925999999999999	-1.6586917875585672	-0.0006318027955748338
-0.007925	-2.846216823961143	-0.004357976486931796
-0.007924	-3.8252735154153044	0.017999065661209977
-0.007923	-4.569803318802499	-0.004357976486931796
-0.007922	-5.005353253784008	0.00682054458713909
-0.007921	-5.094696830190472	-0.008084150178288757
-0.00792	-4.878783187208185	0.00682054458713909
-0.007918999999999999	-4.342721728769405	-0.015536497561002682
-0.007918	-3.5014030509418745	-0.019262671252359642
-0.007917	-2.4292801340643138	-0.015536497561002682
-0.007916	-1.223141852577058	-0.03416736601778749
-0.007915	0.07606265433359692	-0.05652440816592926
-0.007914	1.3417633200918282	-0.037893539709144455
-0.007913	2.5814054427315076	-0.07142910293135711
-0.007911999999999999	3.6088565714058367	-0.06770292924000015
-0.007911	4.4055034610301345	-0.06770292924000015
-0.00791	4.904338429299555	-0.05652440816592926
-0.007909	5.068134986044738	-0.0527982344745723
-0.007908	4.919229025367299	-0.06770292924000015
-0.007906999999999999	4.42783935513175	-0.0527982344745723
-0.007906	3.6535283596090684	-0.04907206078321534
-0.007904999999999999	2.6372451779855473	-0.026715018635073567
-0.007904	1.4273842474813556	-0.030441192326430527
-0.007903	0.14307033663844446	-0.015536497561002682
-0.007902	-1.1710247663399544	-0.015536497561002682
-0.007901	-2.37716304782721	0.003094370895782128
-0.007899999999999999	-3.460453911755579	0.017999065661209977
-0.007899	-4.294327291549237	-0.0006318027955748338
-0.007898	-4.860169942123505	0.003094370895782128
-0.007897	-5.083528883139664	0.003094370895782128
-0.007896	-5.020243849851752	-0.004357976486931796
-0.007895	-4.592139212904115	-0.015536497561002682
-0.007894	-3.877390601652408	-0.022988844943716606
-0.007892999999999999	-2.9057792082321185	-0.01181032386964572
-0.007892	-1.7331447678972867	-0.022988844943716606
-0.007891	-0.4562761550882474	-0.045345887091858376
-0.00789	0.8615415969070875	-0.037893539709144455
-0.007889	2.097461070529831	-0.07888145031407104
-0.007888	3.2179784246275593	-0.06397675554864318
-0.007887	4.1002462416413845	-0.0527982344745723
-0.007885999999999999	4.744264521571308	-0.04907206078321534
-0.007885	5.027185846858442	-0.06397675554864318
-0.007884	5.023463197841506	-0.06770292924000015
-0.007883	4.651198296147909	-0.045345887091858376
-0.007882	4.007180016217985	-0.04907206078321534
-0.007880999999999999	3.0876857090348	-0.022988844943716606
-0.00788	1.948555109852392	-0.030441192326430527
-0.007878999999999999	0.6754091460602888	-0.022988844943716606
-0.007878	-0.6349633079011742	-0.015536497561002682
-0.007877	-1.9006639736594055	-0.004357976486931796
-0.007876	-3.0397945728418136	-0.01181032386964572
-0.007875	-3.996515370194359	0.00682054458713909
-0.007873999999999999	-4.647978948158155	0.017999065661209977
-0.007873	-5.042579743953368	0.021725239352566938
-0.007871999999999999	-5.102142128224344	0.010546718278496053
-0.007871	-4.811775504903338	0.003094370895782128
-0.00787	-4.197538417108902	-0.004357976486931796
-0.007869	-3.3227158981289477	-0.008084150178288757
-0.007868	-2.231979736166707	-0.04161971340050141
-0.007866999999999999	-0.9848923154931558	-0.030441192326430527
-0.007866	0.3254801384683072	-0.060250581857286226
-0.007865	1.5986261022604105	-0.04161971340050141
-0.007864	2.7712605425952423	-0.07142910293135711
-0.007863	3.7652078301171477	-0.07142910293135711
-0.007862	4.48367909038579	-0.05652440816592926
-0.007861	4.952732866519723	-0.060250581857286226
-0.007859999999999999	5.071857635061674	-0.04161971340050141
-0.007859	4.859666641096323	-0.05652440816592926
-0.007858	4.293823990522055	-0.05652440816592926
-0.007857	3.4785638558130776	-0.045345887091858376
-0.007856	2.4287768330371327	-0.04907206078321534
-0.007855	1.230083849583749	-0.037893539709144455
-0.007854	-0.080288604377714	-0.01181032386964572
-0.007852999999999999	-1.379493111288369	-0.0006318027955748338
-0.007852	-2.6079672868772406	0.017999065661209977
-0.007851	-3.6242504685007617	0.003094370895782128
-0.00785	-4.417174709108124	0.017999065661209977
-0.007849	-4.949513518529969	0.010546718278496053
-0.007847999999999999	-5.113310075275152	0.014272891969853013
-0.007847	-4.968126763614649	0.014272891969853013
-0.007845999999999999	-4.487905040429908	-0.01181032386964572
-0.007845	-3.732207289991905	-0.01181032386964572
-0.007844	-2.693588214266768	-0.015536497561002682
-0.007843	-1.524676422948872	-0.019262671252359642
-0.007842	-0.22919456505515298	-0.045345887091858376
-0.007840999999999999	1.084900537923246	-0.0527982344745723
-0.00784	2.3133747135121174	-0.05652440816592926
-0.007839	3.3780523323558063	-0.0527982344745723
-0.007838	4.2565975003526955	-0.05652440816592926
-0.007837	4.80754955485922	-0.0527982344745723
-0.007836	5.068134986044738	-0.06770292924000015
-0.007835	4.978791409638275	-0.04907206078321534
-0.007833999999999999	4.576745315809189	-0.05652440816592926
-0.007833	3.847106108489739	-0.04907206078321534
-0.007832	2.8643267680186417	-0.022988844943716606
-0.007831	1.7177508708023617	-0.015536497561002682
-0.00783	0.43715960897638645	-0.030441192326430527
-0.007829	-0.8769354940020125	0.010546718278496053
-0.007828	-2.10913231860782	0.029177586735280862
-0.007826999999999999	-3.2259270236886124	0.04035610780935175
-0.007826	-4.137976032837926	0.014272891969853013
-0.007825	-4.770826365717042	0.00682054458713909
-0.007824	-5.076083585105792	0.0254514130439239
-0.007823	-5.064915638054984	-0.0006318027955748338
-0.007821999999999999	-4.711263981446066	-0.0006318027955748338
