# Angular measurement - Y = -160.00 
# time [s]	ch1 [V]	ch2 [V]
# 
-0.008192	2.082570474462087	0.13723662378463275
-0.008191	3.2217010736444953	0.13723662378463275
-0.00819	4.1076915396752565	0.14096279747598972
-0.008189	4.744264521571308	0.10742723425377707
-0.008187999999999999	5.023463197841506	0.09624871317970618
-0.008187	5.012295250790698	0.0552608025747796
-0.008185999999999999	4.669811541232589	-0.01181032386964572
-0.008185	4.018347963268793	-0.04161971340050141
-0.008184	3.0839630600178642	-0.10123849246221281
-0.008183	1.952277758869328	-0.12359553461035458
-0.008182	0.6977450401619046	-0.16458344521528115
-0.008180999999999999	-0.6200727118334303	-0.18321431367206598
-0.00818	-1.8857733775916616	-0.1981190084374938
-0.008178999999999999	-3.0323492748079417	-0.2092975295115647
-0.008178	-3.9927927211774232	-0.2092975295115647
-0.008177	-4.6889280873444505	-0.19439283474613686
-0.008176	-5.057470340021112	-0.14595257675849635
-0.008175	-5.094696830190472	-0.09751231877085584
-0.008173999999999999	-4.81922080293721	-0.07888145031407104
-0.008173	-4.201261066125838	-0.026715018635073567
-0.008172	-3.3338838451797557	0.0254514130439239
-0.008171	-2.235702385183643	0.07016549734020744
-0.00817	-1.0072282095947716	0.09624871317970618
-0.008169	0.3105895424005633	0.11115340794513402
-0.008168	1.5874581552096025	0.1335104500932758
-0.008166999999999999	2.7563699465274984	0.1521413185500606
-0.008166	3.7540398830663397	0.1335104500932758
-0.008165	4.506014984487406	0.1335104500932758
-0.008164	4.952732866519723	0.10742723425377707
-0.008163	5.064412337027802	0.04780845519206567
-0.008161999999999999	4.859666641096323	-0.004357976486931796
-0.008161	4.308714586589799	-0.030441192326430527
-0.008159999999999999	3.4934544518808215	-0.09378614507949888
-0.008159	2.4176088859863247	-0.13850022937578244
-0.008158	1.233806498600685	-0.15713109783256723
-0.008157	-0.080288604377714	-0.1720357925979951
-0.008156	-1.375770462271433	-0.1981190084374938
-0.008154999999999999	-2.5967993398264326	-0.22792839796834952
-0.008154	-3.613082521449954	-0.21674987689427863
-0.008152999999999999	-4.413452060091188	-0.1906666610547799
-0.008152	-4.919732326394481	-0.18321431367206598
-0.008151	-5.117032724292088	-0.1310478819930685
-0.00815	-4.960681465580777	-0.082607624005428
-0.008149	-4.484182391412972	-0.045345887091858376
-0.008147999999999999	-3.724761991958033	0.014272891969853013
-0.008147	-2.708478810334512	0.032903760426637826
-0.008146	-1.5097858268811282	0.0850701921056353
-0.008145	-0.225471916038217	0.13723662378463275
-0.008144	1.0923458359571179	0.13723662378463275
-0.008143	2.3022067664613095	0.14841514485870363
-0.008142	3.3780523323558063	0.1446889711673467
-0.008140999999999999	4.230538957234144	0.14096279747598972
-0.00814	4.8261627999439	0.09624871317970618
-0.008139	5.049521740960058	0.07761784472292137
-0.008138	4.982514058655211	0.04408228150070871
-0.008137	4.573022666792253	-0.008084150178288757
-0.008136	3.839660810455867	-0.06397675554864318
-0.008135	2.8717720660525137	-0.1124170135362837
-0.008133999999999999	1.7251961688362336	-0.1310478819930685
-0.008133	0.4408822579933224	-0.1720357925979951
-0.008132	-0.8434316528495888	-0.19439283474613686
-0.008131	-2.097964371557012	-0.20557135582020775
-0.00813	-3.2259270236886124	-0.20184518212885078
-0.008128999999999999	-4.130530734804054	-0.20557135582020775
-0.008128	-4.748490471615426	-0.20184518212885078
-0.008126999999999999	-5.06863828707192	-0.14967875044985332
-0.008126	-5.053747691004176	-0.11986936091899761
-0.008125	-4.718709279479938	-0.07515527662271407
-0.008124	-4.085858946600823	0.003094370895782128
-0.008123	-3.155196692366829	0.021725239352566938
-0.008121999999999999	-2.0272340402352285	0.058986976266136554
-0.008121	-0.7727013215278052	0.10742723425377707
-0.00812	0.5302258343997858	0.12605810271056186
-0.008119	1.807094447208825	0.14096279747598972
-0.008118	2.957392993442041	0.15586749224141758
-0.008117	3.9141137907945867	0.12978427640191884
-0.008116	4.606526507944677	0.11860575532784795
-0.008114999999999999	4.9936820057060185	0.09252253948834921
-0.008114	5.068134986044738	0.058986976266136554
-0.008113	4.78893630977454	0.00682054458713909
-0.008112	4.182144520013976	-0.03416736601778749
-0.008111	3.299876703000151	-0.08633379769678495
-0.00811	2.235199084156462	-0.11614318722764065
-0.008109	0.9806663654490387	-0.15340492414121026
-0.008107999999999999	-0.33342873752936025	-0.1981190084374938
-0.008107	-1.5954067542706556	-0.1981190084374938
-0.008106	-2.7829317906732314	-0.2092975295115647
-0.008105	-3.8178282173814324	-0.20557135582020775
-0.008104	-4.521408881582332	-0.20184518212885078
-0.008102999999999999	-4.9941853067332005	-0.16830961890663812
-0.008102	-5.113310075275152	-0.10496466615356977
-0.008100999999999999	-4.916009677377545	-0.07515527662271407
-0.0081	-4.357612324837149	-0.0527982344745723
-0.008099	-3.564688084229786	0.021725239352566938
-0.008098	-2.4962878163691613	0.058986976266136554
-0.008097	-1.3013174819327136	0.11115340794513402
-0.008095999999999999	-0.009558273055930487	0.12978427640191884
-0.008095	1.2970915318885965	0.14096279747598972
-0.008094	2.525565707477468	0.14841514485870363
-0.008093	3.553016836151797	0.14841514485870363
-0.008092	4.357109023809967	0.1335104500932758
-0.008091	4.882002535197939	0.11487958163649098
-0.00809	5.079302933095546	0.07761784472292137
-0.008088999999999999	4.945287568485851	0.036629934117994783
-0.008088	4.46506584530111	-0.015536497561002682
-0.008087	3.724258690930852	-0.08633379769678495
-0.008086	2.700530211273459	-0.12359553461035458
-0.008085	1.531618419955563	-0.14967875044985332
-0.008084	0.22869126402797188	-0.17576196628935203
-0.008083	-1.092849136984299	-0.20184518212885078
-0.008081999999999999	-2.3176006635562345	-0.22792839796834952
-0.008081	-3.408336825518475	-0.20557135582020775
-0.00808	-4.271991397447621	-0.20557135582020775
-0.008079	-4.856447293106569	-0.18321431367206598
-0.008078	-5.120755373309024	-0.13850022937578244
-0.008076999999999999	-5.038857094936432	-0.09751231877085584
-0.008076	-4.629365703073475	-0.0527982344745723
-0.008074999999999999	-3.910894442804832	-0.015536497561002682
-0.008074	-2.9504509964353502	0.0254514130439239
-0.008073	-1.8113203972529421	0.08134401841427832
-0.008072	-0.5456197314947108	0.11115340794513402
-0.008071	0.798256563619176	0.12605810271056186
-0.008069999999999999	2.0230080901911114	0.1633198396241315
-0.008069	3.1546933913396478	0.16704601331548846
-0.008067999999999999	4.081632996556705	0.12605810271056186
-0.008067	4.71448332943582	0.11487958163649098
-0.008066	5.045799091943122	0.09997488687106314
-0.008065	5.01974054882457	0.032903760426637826
-0.008064	4.677256839266461	-0.004357976486931796
-0.008062999999999999	4.048129155404281	-0.04161971340050141
-0.008062	3.121189550187224	-0.08633379769678495
-0.008061	2.0043948451064315	-0.1310478819930685
-0.00806	0.7647527224667522	-0.16458344521528115
-0.008059	-0.5567876785455187	-0.1981190084374938
-0.008058	-1.837378940371494	-0.19439283474613686
-0.008057	-2.976509539553902	-0.22047605058563557
-0.008055999999999999	-3.9443982839572556	-0.19439283474613686
-0.008055	-4.647978948158155	-0.17576196628935203
-0.008054	-5.046302392970304	-0.14967875044985332
-0.008053	-5.117032724292088	-0.1310478819930685
-0.008052	-4.826666100971082	-0.07888145031407104
-0.008050999999999999	-4.2422102053121336	-0.026715018635073567
-0.00805	-3.3822782823999233	0.010546718278496053
-0.008048999999999999	-2.2915421204376827	0.07016549734020744
-0.008048	-1.0630679448488112	0.11115340794513402
-0.008047	0.25102715812958776	0.11860575532784795
-0.008046	1.5427863670063708	0.14841514485870363
-0.008045	2.7191434563581387	0.14096279747598972
-0.008043999999999999	3.701922796829236	0.14841514485870363
-0.008043	4.487401739402726	0.1335104500932758
-0.008041999999999999	4.945287568485851	0.09252253948834921
-0.008041	5.068134986044738	0.04780845519206567
-0.00804	4.878279886181003	0.029177586735280862
-0.008039	4.349663725776095	-0.004357976486931796
-0.008038	3.549294187134861	-0.07142910293135711
-0.008036999999999999	2.4808939192742363	-0.11614318722764065
-0.008036	1.2859235848377886	-0.16458344521528115
-0.008035	-0.024448869123674385	-0.179488139980709
-0.008034	-1.3236533760343294	-0.20557135582020775
-0.008033	-2.529791657521585	-0.20557135582020775
-0.008032	-3.57957868029753	-0.2092975295115647
-0.008031	-4.387393516972637	-0.1906666610547799
-0.008029999999999999	-4.927177624428353	-0.1608572715239242
-0.008029	-5.10586477724128	-0.13850022937578244
-0.008028	-4.979294710665457	-0.10123849246221281
-0.008027	-4.51396358354846	-0.037893539709144455
-0.008026	-3.758265833110457	-0.004357976486931796
-0.008025	-2.7643185455885515	0.04780845519206567
-0.008024	-1.5805161582029117	0.07389167103156441
-0.008022999999999999	-0.28875694932612855	0.12605810271056186
-0.008022	1.0141702066014624	0.14096279747598972
-0.008021	2.235199084156462	0.1446889711673467
-0.00802	3.3445484912033825	0.14841514485870363
-0.008019	4.204480414115592	0.1335104500932758
-0.008017999999999999	4.792658958791476	0.1037010605624201
-0.008017	5.05696703899393	0.0850701921056353
-0.008015999999999999	4.9974046547229545	0.04780845519206567
-0.008015	4.591635911876933	-0.0006318027955748338
-0.008014	3.9029458437437787	-0.060250581857286226
-0.008013	2.949947695408169	-0.1124170135362837
-0.008012	1.7735906060564013	-0.13850022937578244
-0.008010999999999999	0.5078899402981699	-0.18321431367206598
-0.00801	-0.7838692685786132	-0.20184518212885078
-0.008009	-2.0458472853199083	-0.22047605058563557
-0.008008	-3.1849778845023167	-0.2092975295115647
-0.008007	-4.089581595617759	-0.2092975295115647
-0.008006	-4.748490471615426	-0.18694048736342292
-0.008005	-5.072360936088856	-0.15340492414121026
-0.008003999999999999	-5.079806234122728	-0.11614318722764065
-0.008003	-4.76338106768317	-0.0527982344745723
-0.008002	-4.1007495426685665	-0.030441192326430527
-0.008001	-3.1998684805700606	0.032903760426637826
-0.008	-2.075628477455396	0.06271314995749352
-0.007999	-0.8173731097310369	0.1037010605624201
-0.007998	0.5041672912812339	0.11115340794513402
-0.007996999999999999	1.7512547119547854	0.14841514485870363
-0.007996	2.9201665032726813	0.1521413185500606
-0.007995	3.891777896692971	0.13723662378463275
-0.007994	4.587913262859997	0.12978427640191884
-0.007993	4.978791409638275	0.08134401841427832
-0.007991999999999999	5.060689688010866	0.05153462888342263
-0.007991	4.796381607808412	0.00682054458713909
-0.007989999999999999	4.211925712149464	-0.03416736601778749
-0.007989	3.3668843853049983	-0.06770292924000015
-0.007988	2.257534978258078	-0.11614318722764065
-0.007987	1.058841994804694	-0.15713109783256723
-0.007986	-0.27386635325838465	-0.179488139980709
-0.007984999999999999	-1.5544576150843599	-0.19439283474613686
-0.007984	-2.7382600024699997	-0.21674987689427863
-0.007982999999999999	-3.728484640974969	-0.2092975295115647
-0.007982	-4.510240934531524	-0.18694048736342292
-0.007981	-4.9941853067332005	-0.16458344521528115
-0.00798	-5.128200671342896	-0.12359553461035458
-0.007979	-4.927177624428353	-0.082607624005428
-0.007977999999999999	-4.413452060091188	-0.03416736601778749
-0.007977	-3.590746627348338	0.00682054458713909
-0.007976	-2.555850200640137	0.058986976266136554
-0.007975	-1.3497119191528812	0.0850701921056353
-0.007974	-0.0653980083099701	0.1037010605624201
-0.007973	1.2449744456514928	0.12978427640191884
-0.007972	2.4622806741895564	0.1521413185500606
-0.007970999999999999	3.5120676969655014	0.12978427640191884
-0.00797	4.360831672826903	0.12605810271056186
-0.007969	4.859666641096323	0.11487958163649098
-0.007968	5.071857635061674	0.07016549734020744
-0.007967	4.941564919468915	0.029177586735280862
-0.007965999999999999	4.468788494318046	-0.008084150178288757
-0.007965	3.742871936015532	-0.060250581857286226
-0.007963999999999999	2.7452019994766905	-0.1124170135362837
-0.007963	1.5688449101249227	-0.15340492414121026
-0.007962	0.2770857012481395	-0.17576196628935203
-0.007961	-1.0332867527133234	-0.20557135582020775
-0.00796	-2.269206226336067	-0.21302370320292166
-0.007958999999999999	-3.3413291432136276	-0.22047605058563557
-0.007958	-4.234764907278262	-0.1906666610547799
-0.007956999999999999	-4.830388749988018	-0.16830961890663812
-0.007956	-5.094696830190472	-0.13850022937578244
-0.007955	-5.042579743953368	-0.09378614507949888
-0.007954	-4.647978948158155	-0.06397675554864318
-0.007953	-3.9630115290419354	-0.015536497561002682
-0.007951999999999999	-3.002568082672454	0.029177586735280862
-0.007951	-1.8708827815239177	0.07761784472292137
-0.00795	-0.5902915196979425	0.09624871317970618
-0.007949	0.7238035832804565	0.13723662378463275
-0.007948	1.974613652970944	0.14841514485870363
-0.007947	3.110021603136416	0.1521413185500606
-0.007946	4.036961208353473	0.12233192901920491
-0.007944999999999999	4.6958700843511405	0.10742723425377707
-0.007944	5.01974054882457	0.07761784472292137
-0.007943	5.023463197841506	0.05153462888342263
-0.007942	4.725651276486628	0.014272891969853013
-0.007941	4.089078294590577	-0.045345887091858376
-0.00794	3.1807519344581996	-0.09751231877085584
-0.007939	2.063957229377407	-0.13850022937578244
-0.007937999999999999	0.8057018616530479	-0.1720357925979951
-0.007937	-0.508393241325351	-0.20184518212885078
-0.007936	-1.7666486090497104	-0.21302370320292166
-0.007935	-2.9281151023337344	-0.20184518212885078
-0.007934	-3.899726495754024	-0.20557135582020775
-0.007932999999999999	-4.603307159954923	-0.17576196628935203
-0.007932	-5.046302392970304	-0.13850022937578244
-0.007930999999999999	-5.113310075275152	-0.12359553461035458
-0.00793	-4.8490019950726975	-0.07888145031407104
-0.007929	-4.2571008013798775	-0.037893539709144455
-0.007928	-3.423227421586219	0.029177586735280862
-0.007927	-2.3511045047086583	0.07389167103156441
-0.007925999999999999	-1.1151850310859148	0.09624871317970618
-0.007925	0.19891007189248408	0.12978427640191884
-0.007924	1.4832239827353952	0.1633198396241315
-0.007923	2.681916966188779	0.1521413185500606
-0.007922	3.6758642537106843	0.14096279747598972
-0.007921	4.44645260021643	0.1446889711673467
-0.00792	4.949010217502787	0.11115340794513402
-0.007918999999999999	5.071857635061674	0.05153462888342263
-0.007918	4.885725184214875	0.017999065661209977
-0.007917	4.371999619877711	-0.022988844943716606
-0.007916	3.579075379270349	-0.08633379769678495
-0.007915	2.544178952562148	-0.11614318722764065
-0.007914	1.3343180220579562	-0.1720357925979951
-0.007913	0.042558813181173154	-0.1906666610547799
-0.007911999999999999	-1.2603683427464178	-0.1981190084374938
-0.007911	-2.4962878163691613	-0.21674987689427863
-0.00791	-3.5311842430773623	-0.20184518212885078
-0.007909	-4.357612324837149	-0.18694048736342292
-0.007908	-4.893673783275929	-0.1608572715239242
-0.007906999999999999	-5.117032724292088	-0.13850022937578244
-0.007906	-4.9979079557501365	-0.07888145031407104
-0.007904999999999999	-4.558635371751691	-0.04161971340050141
-0.007904	-3.8066602703306245	0.003094370895782128
-0.007903	-2.812712982808719	0.036629934117994783
-0.007902	-1.6140199993553355	0.0850701921056353
-0.007901	-0.3594872806479121	0.1037010605624201
-0.007899999999999999	0.9657757693812948	0.14096279747598972
-0.007899	2.212863190054846	0.15586749224141758
-0.007898	3.288708755949343	0.13723662378463275
-0.007897	4.144918029844616	0.1335104500932758
-0.007896	4.77032306468986	0.1037010605624201
-0.007895	5.049521740960058	0.07761784472292137
-0.007894	5.012295250790698	0.04780845519206567
-0.007892999999999999	4.613971805978549	-0.008084150178288757
-0.007892	3.9401723339131385	-0.0527982344745723
-0.007891	2.994619483611401	-0.09378614507949888
-0.00789	1.818262394259633	-0.12359553461035458
-0.007889	0.5600070265352736	-0.1608572715239242
-0.007888	-0.7503654274261894	-0.20557135582020775
-0.007887	-1.993730199082805	-0.21674987689427863
-0.007885999999999999	-3.125415500231341	-0.22047605058563557
-0.007885	-4.063523052499207	-0.21674987689427863
-0.007884	-4.7000960343952585	-0.1720357925979951
-0.007883	-5.057470340021112	-0.13477405568442546
-0.007882	-5.083528883139664	-0.10496466615356977
-0.007880999999999999	-4.767103716700106	-0.060250581857286226
-0.00788	-4.130530734804054	-0.019262671252359642
-0.007878999999999999	-3.2482629177902282	0.04780845519206567
-0.007878	-2.1389135107433077	0.058986976266136554
-0.007877	-0.8806581430189485	0.10742723425377707
-0.007876	0.42226901290864255	0.12978427640191884
-0.007875	1.6954149767007458	0.1335104500932758
-0.007873999999999999	2.8643267680186417	0.1446889711673467
-0.007873	3.8284928634050592	0.1446889711673467
-0.007871999999999999	4.5432414746567655	0.12233192901920491
-0.007871	5.004849952756826	0.09997488687106314
-0.00787	5.079302933095546	0.04408228150070871
-0.007869	4.8261627999439	-0.0006318027955748338
-0.007868	4.237984255268016	-0.04907206078321534
-0.007866999999999999	3.41155617350823	-0.08633379769678495
-0.007866	2.3245426605629254	-0.12732170830171155
-0.007865	1.1072364320248618	-0.179488139980709
-0.007864	-0.20685867095353713	-0.18321431367206598
-0.007863	-1.4948952308133843	-0.2092975295115647
-0.007862	-2.70103351230064	-0.22047605058563557
-0.007861	-3.717316693924161	-0.21674987689427863
-0.007859999999999999	-4.465569146328292	-0.1906666610547799
-0.007859	-4.949513518529969	-0.16458344521528115
-0.007858	-5.10586477724128	-0.12732170830171155
-0.007857	-4.927177624428353	-0.10123849246221281
-0.007856	-4.443233252226676	-0.03416736601778749
-0.007855	-3.6391410645685056	0.010546718278496053
-0.007854	-2.6042446378603046	0.04780845519206567
-0.007852999999999999	-1.398106356373049	0.07761784472292137
-0.007852	-0.09890184946239387	0.12978427640191884
-0.007851	1.1816894123635813	0.1521413185500606
-0.00785	2.406440938935517	0.15586749224141758
-0.007849	3.4599506107283977	0.12978427640191884
-0.007847999999999999	4.290101341505119	0.1446889711673467
-0.007847	4.8484986940455155	0.11115340794513402
-0.007845999999999999	5.07558028407861	0.06271314995749352
-0.007845	4.971346111604403	0.036629934117994783
-0.007844	4.513460282521278	-0.030441192326430527
-0.007843	3.7689304791340836	-0.06397675554864318
-0.007842	2.808487032764602	-0.08633379769678495
-0.007840999999999999	1.6321299434128342	-0.14222640306713938
-0.00784	0.34781603256992305	-0.179488139980709
-0.007839	-0.9848923154931558	-0.1981190084374938
-0.007838	-2.213366491082027	-0.22792839796834952
-0.007837	-3.307825302061204	-0.2092975295115647
-0.007836	-4.197538417108902	-0.21302370320292166
-0.007835	-4.811775504903338	-0.16458344521528115
-0.007833999999999999	-5.10586477724128	-0.1310478819930685
-0.007833	-5.042579743953368	-0.10496466615356977
-0.007832	-4.666592193242835	-0.06770292924000015
-0.007831	-3.996515370194359	-0.015536497561002682
-0.00783	-3.0584078179264935	0.021725239352566938
-0.007829	-1.9006639736594055	0.06643932364885048
-0.007828	-0.6498539039689181	0.07761784472292137
-0.007826999999999999	0.6716864970433528	0.11860575532784795
-0.007826	1.9224965667338403	0.14841514485870363
-0.007825	3.0653498149331844	0.14096279747598972
-0.007824	3.981121473099434	0.1335104500932758
-0.007823	4.662366243198717	0.10742723425377707
-0.007821999999999999	5.023463197841506	0.08134401841427832
-0.007821	5.049521740960058	0.05153462888342263
-0.007819999999999999	4.740541872554372	0.00682054458713909
-0.007819	4.118859486726064	-0.04161971340050141
-0.007818	3.2328690206953032	-0.09378614507949888
-0.007817	2.108629017580639	-0.13477405568442546
-0.007816	0.8764321929748314	-0.16830961890663812
